2114,1607
1670,1744
1405,1847
1200,1911
1060,1947
1017,1964
1087,1967
1238,1941
1478,1898
1783,1831
2065,1771
2320,1722
2498,1687
2566,1643
1238,2016
2071,1767
2163,1776
1312,1954
2631,1785
989,2043
2595,1775
1134,2023
2151,1755
1936,1872
1385,2075
2511,1817
958,2200
2549,1871
1019,2164
2160,1892
1747,1967
1509,1981
2493,1815
1055,2009
2614,1721
1423,2000
2212,1754
2267,1779
1365,1874
2643,1783
1043,2047
2542,1757
1527,1922
2062,1776
2354,1776
1235,1989
2608,1825
1040,2159
2330,1766
1674,1955
1689,1943
2485,1835
1207,2067
2603,1797
1119,2106
2258,1823
1825,1969
1523,1887
2509,1803
1056,2165
2597,1786
1406,2096
2158,1809
2241,1989
1346,1947
2576,1844
955,2146
2639,1766
1221,2121
2224,1824
2146,2007
1563,2096
2667,1829
994,2112
2640,1785
1153,1985
2315,1797
2032,2013
1629,1905
2587,1685
1227,1835
2303,2225
525,3503
2223,2374
2042,2002
1949,1595
2577,1622
1136,2011
2609,1734
1132,2066
2123,1799
1997,1906
1330,1905
2589,1744
1059,2087
2513,1761
1521,2034
2044,1840
2081,1907
1236,2203
2575,1778
963,2157
2526,1890
1326,2128
2112,1885
2259,1905
1328,2074
2639,1699
1052,2003
2576,1752
1606,1968
2055,1775
2382,1801
1271,2055
2672,1770
1093,2034
2373,1763
1729,1975
1635,1850
2465,1742
1098,1999
2702,1743
1023,2114
2274,1767
1909,1879
1488,1916
2577,1827
959,2096
2707,1779
1186,2160
2368,1755
1741,2032
1692,1901
2485,1840
1122,2155
2657,1808
1316,2078
2294,1829
2163,1925
1526,1931
2685,1765
1008,2131
2496,1792
1472,2112
2176,1853
2273,1861
1338,1962
2713,1762
1042,2119
2442,1808
1601,2047
1814,1936
2410,1819
1104,2045
2639,1778
1005,2085
2353,1858
1712,2032
1706,1982
2481,1835
1049,2135
2634,1725
1282,2019
2268,1775
2142,1866
1463,1728
2870,1495
743,2378
1813,2960
1008,2771
2466,1803
2209,1646
1661,1648
2608,1630
976,1922
2667,1666
1091,2026
2370,1679
1878,1846
1733,1739
2529,1712
983,1958
2705,1695
927,2055
2433,1805
1365,2013
1838,1859
2234,1872
1248,2031
2587,1840
944,2186
2480,1807
1234,1994
2000,1706
2171,1795
1216,2041
2657,1693
935,2017
2656,1697
1182,2035
2163,1671
2060,1835
1264,1901
2669,1703
995,2121
2649,1702
1330,2022
2215,1769
1956,1825
1387,1895
2558,1723
997,2096
2645,1686
1214,2021
2293,1738
2101,1866
1535,1964
2688,1744
958,2075
2702,1782
1110,2039
2401,1723
1978,1961
1741,1940
2594,1854
1087,2160
2608,1758
1191,2001
2140,1780
2122,1919
1497,1981
2573,1869
1020,2265
2544,1883
1393,2042
1991,1870
2271,1916
1157,2077
2694,1817
1071,2106
2486,1770
1813,1918
1915,1729
2594,1650
640,2654
1936,3155
815,2592
2893,1813
1567,1853
2307,1563
2303,1700
1453,1911
2652,1727
1015,2098
2599,1728
1517,1968
2169,1809
2375,1825
1262,1981
2690,1730
1020,2119
2368,1801
1623,2096
1680,1979
2382,1954
1139,2118
2650,1883
1011,2192
2288,1808
1813,2007
1595,1917
2544,1793
1017,2064
2672,1792
1381,2010
2243,1776
2007,1857
1424,2003
2643,1842
961,2095
2733,1727
1278,2042
2304,1759
2134,1872
1552,1949
2661,1815
1023,2177
2675,1855
1363,2046
2257,1740
2286,1856
1392,2016
2710,1846
979,2160
2619,1907
1297,2115
2130,1801
2167,1937
1559,1984
2739,1837
1099,2106
2579,1821
1314,2111
2019,1888
2294,1872
1191,2113
2718,1770
1056,2165
2496,1759
1790,2070
1836,1874
2383,1806
1163,2167
2727,1815
1143,2092
2412,1767
1962,1946
1714,1909
2609,1766
1008,2112
2622,1607
1370,1843
2387,1754
1248,3195
1449,2879
2821,1890
1158,1855
2627,1568
1325,1893
2011,1745
2219,1738
1170,2055
2687,1728
1045,2039
2480,1756
1448,1994
1841,1776
2357,1830
987,2029
2603,1791
955,2223
2575,1929
1262,2127
2071,1886
1937,2026
1263,2032
2522,1858
939,2083
2638,1744
1203,2025
2295,1680
2130,1774
1573,1922
2644,1764
912,2102
2689,1684
1089,1984
2381,1728
1968,1810
1648,1865
2619,1728
950,2022
2624,1815
995,2098
2534,1769
1470,1987
2023,1818
2352,1792
1235,2005
2651,1763
986,2120
2448,1772
1365,2032
1898,1809
2190,1857
1229,1967
2659,1783
912,2096
2503,1776
1179,2128
2013,1763
2128,1859
1123,1957
2608,1734
876,2095
2593,1729
1061,2113
2112,1809
1929,1891
1265,1995
2558,1844
831,2032
2615,1786
1152,2039
2214,1767
2100,1887
1410,1967
2527,1758
912,2083
2620,1753
1083,1873
2337,1579
2005,1805
773,3010
2271,2696
1136,2292
2861,1557
1015,1847
2376,1604
1820,1872
1696,1759
2538,1664
965,1971
2640,1744
960,2051
2417,1706
1356,2009
2069,1745
2257,1776
1170,1923
2595,1792
785,2142
2437,1792
1188,2187
1904,1855
2074,1918
1056,2026
2590,1744
872,2034
2608,1661
1121,1955
2128,1697
2034,1797
1241,1851
2670,1722
818,1958
2687,1703
1005,1975
2256,1711
1849,1809
1408,1973
2613,1695
901,2071
2690,1696
1136,2054
2303,1725
2055,1815
1507,1870
2505,1765
957,2033
2700,1758
1104,2095
2384,1739
1935,1870
1681,2014
2586,1684
880,2003
2704,1715
993,2127
2574,1729
1426,2006
2069,1793
2373,1716
1253,2003
2669,1747
880,2099
2501,1712
1250,2013
2174,1712
2242,1901
1345,2041
2704,1733
901,2127
2583,1713
1095,2010
2113,1706
2083,1777
1172,2041
2673,1731
916,2043
2687,1515
1171,1842
1335,2618
1494,2879
1232,2096
2869,1572
1072,1943
2638,1520
1485,1931
2085,1654
2112,1776
1213,1986
2699,1675
863,2056
2659,1712
1290,1957
2174,1711
2240,1850
1298,2034
2656,1765
903,2149
2618,1869
1088,2105
2227,1840
2043,2007
1452,2030
2617,1828
928,2114
2635,1695
1138,2166
2157,1714
1965,1848
1584,1954
2647,1778
960,2192
2665,1714
966,2084
2425,1723
1474,1984
1716,1785
2374,1911
1200,2096
2703,1783
918,2173
2518,1814
1365,2057
1919,1810
2295,1854
1067,2096
2672,1802
997,2154
2534,1827
1283,2126
2065,1847
2178,1903
1201,2177
2706,1840
962,2153
2624,1813
1309,2107
2143,1836
1875,2023
1354,2154
2655,1843
928,2223
2681,1822
1290,2069
2255,1827
2120,1898
1453,2081
2703,1695
945,1957
2923,1586
538,3168
1938,3155
1740,2348
2093,1751
2672,1619
1165,2000
2711,1690
1087,2064
2318,1701
1921,1899
1722,1903
2625,1746
939,2112
2672,1783
991,2110
2490,1777
1409,2113
1869,1904
2277,1936
1332,2154
2625,1901
879,2351
2496,1923
1270,2071
2007,1851
2261,1856
1207,2062
2705,1744
1097,2096
2539,1724
1392,2125
1888,1750
2391,1805
1168,2033
2752,1675
1107,2055
2474,1778
1968,1894
1773,1968
2644,1739
977,1981
2725,1728
1017,2127
2497,1719
1790,1967
1890,1818
2544,1776
1168,2021
2653,1744
1051,2000
2241,1687
1937,1917
1477,1926
2633,1782
1057,2085
2640,1731
1222,2179
2125,1717
2068,1831
1310,1984
2692,1680
906,2026
2705,1721
1313,2067
2239,1806
1871,1931
1362,1961
2688,1728
960,2079
2723,1742
1166,2066
2317,1808
2080,1891
1548,1841
2669,1748
958,2022
2688,1685
991,1841
2834,1405
1104,2833
1456,3230
2464,2128
1422,1902
2791,1470
967,1904
2637,1619
1375,1853
2134,1718
2339,1754
1217,1946
2679,1617
885,2087
2569,1696
1269,1970
1969,1797
2134,1840
1328,2064
2608,1776
911,2223
2487,1856
1097,2138
2031,1851
2001,1953
1146,2012
2642,1809
931,2012
2640,1695
1138,1997
2224,1668
1968,1846
1391,2000
2655,1678
914,1989
2736,1690
1166,1962
2320,1686
1698,1925
1567,1958
2585,1749
941,1991
2698,1706
1089,2084
2379,1729
1946,1887
1648,1936
2672,1743
1008,2112
2725,1715
1213,2122
2305,1756
2119,1914
1490,1908
2687,1695
924,2064
2662,1697
1085,2086
2241,1746
1936,1920
1789,1841
2634,1765
918,2003
2694,1718
974,2045
2484,1753
1483,2037
1795,1863
2399,1814
1054,2178
2725,1760
865,2051
2550,1747
1371,2059
2010,1761
2330,1871
1190,2151
2743,1766
983,2089
2591,1697
1117,2066
2113,1808
2141,1843
1207,2003
2687,1563
1139,1867
2064,2341
1046,3211
1859,2313
2736,1693
1221,1773
2778,1558
1037,2047
2541,1635
1820,1835
1844,1792
2571,1754
1007,2061
2687,1641
929,2026
2421,1682
1666,1915
1649,1917
2474,1823
1094,2209
2655,1795
1008,2193
2288,1867
1712,2004
1474,1966
2559,1851
878,2096
2763,1759
1107,2035
2417,1705
1664,1935
1704,1866
2544,1807
1021,2062
2758,1715
1198,2073
2351,1859
2163,1850
1491,1845
2721,1796
903,2096
2789,1751
1069,2211
2470,1785
1975,1936
1740,1950
2704,1845
977,2160
2746,1776
1030,2183
2353,1872
1840,1948
1834,1877
2640,1821
1073,2128
2701,1804
1121,2143
2302,1846
2027,2022
1335,2081
2671,1874
913,2166
2724,1827
1037,2235
2363,1835
1809,2039
1488,2105
2609,1884
834,2154
2736,1891
1120,2205
2441,1856
2031,1978
1727,1999
2505,1910
999,2147
2726,1855
963,2175
2599,1797
1462,2067
2112,1706
2586,1589
1014,2469
1806,3280
817,2810
2877,1845
1474,1846
2289,1648
2318,1834
1363,2034
2738,1765
917,2150
2620,1744
1206,2064
2302,1810
2123,1850
1467,1999
2704,1790
940,2159
2668,1809
1058,2203
2143,1918
1938,2105
1270,2179
2619,1919
832,2177
2706,1829
970,2106
2448,1831
1574,2046
1808,1883
2407,1803
1040,2118
2791,1814
950,2124
2559,1755
1415,2096
1903,1804
2326,1862
1086,2079
2748,1774
1001,2175
2483,1792
1818,1999
1749,1942
2428,1883
1029,2189
2704,1807
1036,2110
2382,1781
1981,1989
1568,1889
2621,1815
915,2161
2704,1776
951,2154
2600,1805
1487,2031
2018,1835
2415,1883
1137,2128
2749,1785
823,2173
2571,1817
1331,2030
1892,1885
2311,1845
1291,2110
2690,1808
851,2200
2559,1835
1099,2105
2061,1811
2179,1867
1230,2096
2714,1799
952,2176
2657,1794
1074,2165
2160,1851
2007,1846
1218,2129
2634,1747
832,1947
2900,1456
847,2672
1681,3152
1514,2576
1891,1846
2558,1570
915,1869
2706,1683
923,2081
2615,1648
1362,1963
2165,1730
2067,1878
1168,1871
2647,1728
827,2035
2675,1705
1217,2015
2198,1728
2160,1926
1313,2003
2631,1766
778,2083
2608,1825
1031,2157
2288,1790
2042,1801
1514,1930
2691,1642
933,1950
2700,1654
1046,1982
2276,1665
1879,1834
1728,1739
2646,1657
1006,1983
2661,1634
1136,2010
2160,1681
2067,1776
1226,1865
2698,1581
903,2007
2681,1737
1014,2102
2253,1706
1872,1827
1352,1881
2587,1711
826,1995
2735,1783
1094,2042
2320,1639
2096,1797
1545,1888
2519,1751
926,2186
2710,1723
969,2071
2572,1657
1520,1906
2007,1747
2468,1807
1114,2029
2715,1757
923,2074
2670,1709
1377,1968
2138,1702
2322,1826
1221,2033
2764,1680
990,2019
2638,1763
1246,1995
2229,1773
2177,1825
1318,1911
2722,1765
846,2083
2689,1648
1109,1902
2352,1515
1901,2047
416,3271
2470,2444
1032,2015
2974,1454
1072,1846
2306,1611
1978,1741
1399,1875
2610,1630
886,2010
2738,1664
848,2000
2523,1641
1409,1936
1856,1750
2397,1737
1011,2074
2731,1723
980,2192
2535,1811
1510,2036
1941,1849
2212,1845
1109,2080
2726,1744
1052,2021
2525,1683
1806,1822
1882,1712
2624,1702
1028,1959
2775,1633
1061,2080
2535,1682
1936,1895
1748,1780
2733,1668
1008,2096
2722,1663
1119,1973
2231,1742
2124,1855
1344,1991
2769,1715
958,2161
2763,1709
1111,2064
2327,1725
1930,1897
1458,1982
2706,1781
947,2153
2784,1806
1157,2039
2422,1744
1815,1930
1521,1950
2631,1791
913,2174
2768,1767
1078,2125
2485,1745
1949,1937
1752,1879
2653,1786
878,2133
2790,1830
975,2128
2732,1735
1533,2027
2224,1811
2442,1869
1236,2030
2711,1746
880,2147
2767,1728
1288,1974
2309,1616
2493,1589
1019,2448
2141,3120
731,2640
2934,1695
1350,1824
2251,1657
2183,1750
1547,1860
2779,1671
887,2046
2768,1751
1030,2018
2307,1755
1975,1899
1344,1973
2726,1746
844,2115
2802,1782
887,2149
2526,1869
1479,2143
1825,2017
2374,1979
935,2185
2736,1798
927,2181
2752,1765
1104,2102
2320,1746
2066,1929
1393,2033
2749,1756
924,2041
2812,1709
1143,2078
2427,1765
2186,1858
1533,1937
2662,1787
953,2123
2768,1810
1062,2091
2468,1827
1947,1869
1667,1893
2689,1797
974,2118
2801,1840
999,2113
2694,1745
1492,2058
2124,1803
2444,1829
1242,2070
2739,1808
867,2129
2597,1773
1331,2111
2278,1798
2277,1871
1280,2022
2775,1808
910,2210
2665,1750
1213,2142
2140,1819
2106,1936
1171,2158
2743,1823
798,2191
2794,1825
1072,2112
2256,1847
2019,1951
1250,2081
2704,1811
832,2159
2733,1803
896,2134
2482,1774
1431,1885
1951,1664
1882,2700
525,3423
2735,2217
1150,1968
2704,1600
1616,1761
1916,1729
2265,1776
1009,1986
2758,1738
912,2089
2643,1730
1404,2007
2047,1735
2368,1823
1056,2043
2683,1776
819,2155
2581,1835
1203,2176
2134,1889
2171,1968
1152,2119
2640,1809
737,2117
2608,1795
1130,2090
2299,1742
2185,1838
1357,1867
2736,1700
880,2093
2665,1761
971,1966
2389,1717
1600,1974
1584,1862
2482,1733
977,2063
2704,1718
817,2122
2569,1717
1136,2085
2004,1778
2109,1794
1107,2053
2687,1719
822,2123
2647,1761
1038,2089
2146,1819
1950,1856
1196,1997
2652,1747
853,2095
2688,1806
1184,2085
2259,1782
1819,1958
1360,2012
2571,1810
801,2008
2686,1750
1097,2097
2304,1782
2017,1879
1491,1866
2610,1746
819,2112
2644,1756
993,2060
2642,1797
1499,2011
2036,1739
2404,1822
1063,2045
2694,1691
859,2065
2653,1713
1264,1939
2168,1501
2371,1648
529,2983
2346,2817
806,2345
2962,1587
1038,1822
2449,1586
1825,1783
1675,1765
2627,1626
880,2080
2691,1667
837,1978
2509,1741
1335,1957
1783,1751
2301,1792
1129,2019
2714,1744
788,2130
2492,1808
1168,2176
1920,1895
2127,1904
1019,2161
2707,1835
826,2034
2671,1670
1133,2031
2192,1738
2110,1830
1236,1963
2749,1687
880,2134
2733,1681
1186,1979
2298,1674
1929,1874
1408,1987
2672,1751
816,2224
2785,1743
1040,2078
2359,1744
2051,1811
1563,1971
2786,1744
884,2122
2737,1786
983,2103
2625,1802
1570,2018
2001,1730
2439,1794
1136,2087
2727,1782
930,2130
2694,1807
1359,2045
2145,1771
2351,1856
1137,1996
2765,1757
796,2155
2622,1789
1222,2128
1993,1897
2207,1875
1322,2032
2750,1767
907,2105
2694,1814
1097,2095
2176,1792
2085,1936
1142,2001
2741,1766
902,2133
2694,1745
1008,2055
2323,1584
1967,1728
449,3103
2155,2815
884,2330
2996,1616
1054,1901
2543,1600
1422,1940
1807,1743
2384,1712
974,2000
2719,1783
874,2079
2692,1779
1259,2038
2229,1681
2208,1832
1300,1936
2631,1868
842,2207
2724,1856
1134,2224
2257,1894
2054,2026
1477,2035
2656,1823
874,2119
2718,1747
1091,2089
2422,1753
1967,1899
1685,1877
2662,1765
929,2082
2768,1717
938,2106
2514,1749
1405,1949
2089,1756
2384,1794
1205,1996
2783,1739
842,2089
2608,1794
1270,2131
1991,1763
2241,1886
1072,2117
2800,1776
816,2066
2675,1779
1200,2121
2144,1885
2097,1858
1157,2064
2719,1869
999,2139
2704,1764
1037,2126
2258,1712
1966,1955
1365,2034
2639,1775
837,2160
2736,1799
1139,2096
2352,1833
2122,1883
1483,1941
2597,1797
861,2179
2707,1788
1019,2145
2482,1779
1931,1931
1712,1978
2725,1849
893,2102
2735,1762
928,2138
2630,1743
1373,2097
2125,1744
2345,1638
1396,1786
2518,2143
5,3775
2592,2678
986,2239
2895,1523
1347,1842
2242,1617
2272,1694
1238,1933
2704,1719
827,2047
2638,1714
1131,2096
2305,1677
2101,1799
1311,1857
2687,1743
757,2226
2672,1805
934,2100
2352,1904
1584,2128
1786,1905
2452,1910
883,2130
2759,1802
795,2142
2624,1693
1229,2098
2045,1702
2164,1808
1105,2005
2738,1664
797,2111
2735,1731
1001,2002
2229,1737
2031,1831
1270,1965
2672,1694
874,2156
2753,1712
905,2086
2497,1744
1488,1955
1748,1900
2479,1776
938,2233
2768,1753
939,2156
2688,1727
1070,2053
2170,1820
2033,1840
1283,2083
2738,1755
869,2112
2766,1744
1232,2051
2279,1776
2250,1843
1303,1953
2679,1799
878,2144
2787,1717
1045,2128
2406,1776
2096,1957
1488,1927
2752,1763
781,2028
2803,1773
911,2218
2634,1821
1506,2006
2066,1845
2522,1792
1066,2105
2833,1851
877,2135
2551,1741
1344,1997
2227,1810
2350,1875
1167,2058
2773,1616
1094,1941
2288,2017
683,3383
1931,2491
2349,1919
1264,1839
2837,1568
861,2000
2722,1707
1067,2064
2192,1712
2101,1819
1153,1998
2705,1749
845,2118
2752,1727
1197,2107
2288,1801
1895,1887
1364,2071
2646,1845
754,2240
2747,1915
987,2256
2523,1897
1708,2000
1852,1864
2367,1793
1007,2115
2832,1746
929,2053
2719,1727
1590,1925
2064,1919
2538,1743
1121,2032
2797,1738
874,2105
2752,1746
1367,2014
2211,1769
2383,1862
1259,2054
2818,1745
871,2143
2675,1765
1226,2124
2061,1781
2265,1859
1338,1984
2787,1827
795,2188
2711,1789
1090,2177
2203,1808
2083,1936
1233,2101
2714,1796
772,2189
2798,1751
971,2181
2459,1821
1584,2056
1675,2016
2496,1808
816,2108
2827,1775
834,2162
2682,1835
1088,2192
2179,1795
2130,1954
1216,2065
2799,1767
759,2160
2775,1788
1197,2032
2276,1808
1933,1905
1309,2032
2721,1687
1011,1886
2550,1835
452,3573
2240,2541
2187,1936
1680,1783
2841,1570
895,2126
2839,1658
942,2167
2555,1667
1591,1947
2025,1709
2495,1727
1008,2035
2769,1730
950,2135
2669,1762
1361,2045
2148,1801
2345,1903
1104,2089
2752,1840
734,2282
2585,1833
1230,2159
1981,1831
2247,1831
1326,1958
2813,1707
890,2130
2706,1703
1075,2020
2227,1707
2099,1871
1227,2001
2810,1690
864,2117
2779,1731
994,2097
2470,1665
1578,1942
1695,1932
2559,1802
834,2069
2801,1733
915,2174
2758,1699
1147,2054
2128,1776
2122,1811
1124,2016
2783,1777
829,2137
2755,1764
1263,2046
2246,1799
2270,1813
1243,2000
2659,1752
767,2187
2771,1811
1150,2124
2351,1770
2131,1840
1461,2032
2727,1773
752,2138
2887,1768
975,2251
2693,1744
1625,2019
1951,1898
2523,1789
1014,2154
2755,1754
919,2183
2540,1790
1343,1865
2381,1451
1951,2530
545,3520
2732,2192
1040,2131
2736,1546
1239,1957
1984,1717
2266,1718
993,2025
2701,1721
860,2122
2781,1765
881,2135
2509,1785
1437,1944
1714,1856
2398,1777
847,2160
2705,1835
750,2268
2669,1903
981,2215
2313,1935
1573,2036
1488,1986
2507,1758
786,2062
2775,1678
787,2098
2687,1747
1163,2002
2073,1824
2175,1776
1067,1994
2767,1722
841,2063
2715,1674
998,2041
2441,1742
1682,1933
1511,1969
2578,1841
833,2177
2803,1762
862,2032
2657,1760
1178,2076
2031,1868
2193,1853
1102,2140
2759,1879
819,2105
2672,1719
1296,2061
2210,1817
2301,1889
1265,2096
2783,1754
834,2227
2743,1767
1195,2073
2301,1806
2170,1843
1350,2010
2854,1721
805,2149
2770,1850
1104,2096
2431,1773
2034,1892
1515,1921
2778,1771
787,2139
2753,1754
951,2037
2690,1491
1405,2224
1227,3058
2409,2405
1213,2087
3037,1526
853,2005
2613,1712
1363,1954
1869,1758
2389,1746
986,2128
2769,1745
784,2128
2766,1680
867,2085
2501,1795
1562,1981
1635,1936
2471,1811
793,2198
2698,1892
698,2255
2621,1918
961,2203
2365,1872
1709,1959
1469,1878
2619,1695
871,2096
2858,1665
809,2109
2666,1744
1270,1959
2011,1789
2317,1808
1060,2028
2825,1695
951,2106
2727,1729
1058,2103
2179,1776
2100,1882
1088,2075
2814,1747
770,2148
2771,1783
1221,2067
2277,1822
2291,1840
1209,1936
2758,1780
720,2135
2804,1725
1118,2133
2400,1808
2127,1891
1405,1936
2755,1833
741,2210
2814,1731
954,2028
2702,1725
1597,2036
2037,1840
2486,1825
1026,2171
2756,1744
814,2135
2554,1780
1331,2005
2181,1654
2591,1617
896,2135
1815,2983
567,3041
2896,1877
1217,1890
2387,1647
2011,1762
1641,1919
2770,1710
822,2027
2839,1719
834,2112
2573,1765
1458,2056
1755,1813
2446,1743
885,2090
2767,1777
794,2206
2730,1841
1008,2324
2234,1866
1989,2017
1232,2032
2709,1794
779,2155
2816,1780
944,2129
2575,1667
1514,1982
1808,1811
2535,1715
875,2112
2845,1708
814,2074
2803,1704
1070,2099
2288,1776
2053,1895
1290,2062
2791,1734
816,2109
2827,1695
1169,2059
2367,1748
2241,1845
1443,2086
2708,1775
871,2119
2842,1728
1088,2037
2495,1743
2016,1885
1571,1918
2766,1799
831,2188
2864,1744
942,2064
2702,1728
1503,2112
2161,1766
2530,1739
1067,2075
2864,1806
914,2210
2608,1719
1279,2033
2233,1799
2351,1808
1162,2017
2834,1597
897,1881
2783,1691
266,3546
2143,2735
1936,2095
1954,1600
2734,1515
844,1970
2815,1683
848,2047
2569,1623
1346,1975
1875,1840
2322,1702
955,2056
2736,1751
778,2059
2736,1711
813,2067
2421,1729
1467,2185
1567,1926
2402,1856
761,2209
2661,1803
750,2162
2631,1781
998,1998
2331,1712
1759,1965
1449,1823
2642,1639
782,2112
2783,1636
839,2022
2593,1690
1191,1923
1968,1750
2268,1755
1038,1951
2729,1665
853,2030
2719,1674
1072,2058
2085,1695
2054,1807
1136,2000
2725,1680
726,2082
2731,1691
1267,2070
2172,1741
2256,1847
1229,1932
2672,1710
711,2128
2774,1712
1037,2106
2370,1738
2115,1927
1431,1990
2764,1778
741,2032
2775,1744
882,2090
2631,1725
1557,2019
2015,1794
2581,1747
1008,2061
2813,1809
789,2090
2590,1726
1347,1998
2157,1777
2394,1866
1083,2004
2765,1575
960,1863
2173,2608
738,3398
2324,2155
2192,1803
1719,1711
2736,1642
854,2064
2809,1742
858,2111
2601,1751
1459,1974
1801,1858
2431,1778
822,2064
2835,1773
815,2133
2750,1824
944,2164
2448,1840
1595,2067
1501,1986
2511,1917
754,2226
2762,1873
834,2256
2689,1798
1198,2112
2164,1695
2258,1828
1141,1973
2915,1674
805,2080
2849,1771
1085,2039
2297,1691
2075,1819
1253,2043
2827,1723
858,2121
2874,1712
1152,2094
2371,1762
2240,1904
1438,2031
2779,1745
874,2119
2867,1730
1072,2134
2524,1846
2061,1902
1664,2054
2822,1753
843,2175
2921,1718
958,2160
2730,1773
1531,2066
2160,1781
2567,1809
1075,2128
2919,1742
882,2115
2704,1787
1277,2099
2326,1839
2415,1878
1195,2082
2892,1776
811,2199
2829,1781
1211,2173
2178,1870
2374,1851
1131,2112
2869,1739
759,2197
2833,1739
1023,2064
2263,1663
2305,1651
814,2567
1872,3136
752,2629
3060,1749
1009,1875
2642,1550
1546,1862
1749,1803
2494,1777
919,2077
2847,1649
835,2044
2798,1707
1014,2079
2238,1783
2028,1859
1190,2034
2746,1793
784,2256
2786,1810
1168,2198
2283,1870
2179,1987
1235,2046
2672,1773
688,2112
2847,1699
1067,2027
2478,1709
2062,1824
1520,1837
2816,1698
749,2064
2864,1654
849,2033
2762,1651
1527,1915
2075,1776
2543,1749
1008,2064
2846,1661
801,2106
2646,1754
1307,2063
2222,1792
2399,1807
1155,1983
2869,1707
788,2127
2709,1767
1181,2021
2074,1791
2244,1867
1075,2079
2832,1755
788,2119
2771,1773
1046,2208
2256,1808
2098,1915
1178,2095
2827,1770
768,2177
2800,1747
875,2182
2579,1805
1591,2023
1744,1990
2589,1935
868,2107
2832,1810
811,2190
2795,1781
957,2128
2414,1801
1798,1877
1616,1689
2608,1869
0,3670
2451,2820
768,2335
3121,1581
931,1935
2741,1590
1294,2019
1983,1746
2370,1744
969,2000
2779,1718
730,2069
2875,1677
874,2193
2591,1723
1463,2021
1790,1861
2487,1825
842,2187
2747,1836
759,2253
2736,1910
935,2359
2519,1856
1680,2017
1587,1930
2638,1733
833,2102
2895,1732
943,2189
2750,1722
1247,2042
2086,1831
2316,1783
1123,1936
2875,1681
833,2073
2833,1739
1275,2058
2274,1755
1941,1863
1232,1985
2831,1749
811,2198
2859,1720
1162,2181
2423,1781
2202,1818
1359,2002
2839,1759
734,2098
2869,1765
1021,2160
2470,1819
2130,1910
1488,1974
2795,1786
756,2123
2827,1728
893,2109
2785,1712
1497,2000
2075,1850
2511,1815
1050,2137
2847,1706
775,2051
2623,1786
1306,2098
1924,1791
2431,1849
1346,2095
2853,1867
749,2176
2705,1733
1119,2030
2013,1798
2219,1834
976,2126
2647,1600
944,1893
2589,2114
0,3738
2747,2421
931,2176
2768,1508
1409,1822
1777,1811
2403,1776
1072,1947
2806,1623
799,2086
2622,1693
1184,1953
1915,1754
2247,1822
879,2115
2679,1789
814,2027
2736,1717
713,2214
2458,1849
1302,2108
1603,1984
2338,1920
779,2141
2787,1746
720,2155
2738,1667
977,1996
2455,1654
1610,1846
1550,1898
2617,1734
735,2000
2903,1606
735,2135
2739,1648
1121,2053
2040,1745
2230,1765
951,1917
2673,1669
683,2087
2849,1713
783,2116
2580,1791
1406,1907
1883,1842
2384,1733
835,1984
2802,1681
777,2078
2803,1711
797,2110
2583,1750
1543,1949
1643,1839
2566,1783
763,2005
2832,1718
779,2174
2786,1782
912,2077
2467,1641
1789,1881
1359,1913
2679,1747
720,2139
2901,1739
877,2167
2694,1766
1152,2027
2006,1770
2353,1930
1038,2064
2871,1751
811,2132
2798,1712
1355,1984
2150,1701
2450,1747
983,1819
2857,1561
613,2224
2074,2992
831,2881
2800,1833
1776,1683
2015,1598
2640,1638
945,1966
2859,1686
757,2130
2876,1663
1095,1965
2384,1678
2169,1793
1392,1953
2858,1706
754,2147
2883,1774
987,2158
2631,1763
1637,2064
1840,1872
2526,1853
835,2194
2862,1731
779,2171
2865,1709
1174,2029
2375,1648
2288,1775
1331,1811
2869,1600
749,2047
2893,1640
1013,1988
2288,1677
2093,1833
1680,1712
2815,1655
779,2055
2880,1629
809,1987
2592,1739
1441,1973
1726,1872
2534,1703
831,2171
2886,1674
739,2059
2813,1710
994,2061
2462,1727
1719,1950
1504,1922
2674,1792
768,2167
2895,1680
737,2149
2713,1765
1132,2065
1998,1792
2297,1845
935,2110
2805,1694
747,2214
2891,1797
823,2107
2604,1759
1311,2020
1841,1840
2371,1808
827,2160
2848,1744
637,1958
3056,1475
733,2359
1744,3101
1461,2586
1758,1858
2721,1567
779,2002
2853,1652
826,2155
2705,1712
1050,2047
2085,1776
2132,1824
1008,1990
2783,1731
734,2156
2795,1795
1140,2160
2224,1818
1915,1931
1115,2072
2688,1952
619,2227
2782,1891
1083,2204
2310,1842
2115,1852
1424,1979
2846,1701
710,2047
2900,1662
927,2111
2675,1712
1619,1918
1959,1808
2672,1771
933,1995
2907,1723
711,2090
2835,1697
1058,2085
2380,1746
2195,1870
1348,2019
2835,1759
667,2182
2768,1745
976,2128
2607,1765
1637,1951
1909,1899
2630,1788
853,2176
2869,1777
655,2176
2768,1761
1103,2100
2077,1797
2241,1904
1203,1971
2876,1757
614,2239
2787,1840
1011,2282
2283,1799
2032,1886
1091,2067
2798,1749
576,2117
2810,1777
849,2151
2487,1747
1457,1921
1630,1707
2657,1630
0,3009
1891,2992
711,2555
3056,1697
826,1941
2791,1527
1019,1958
2122,1762
2130,1821
1031,1970
2791,1671
596,2109
2822,1679
806,2035
2511,1708
1525,1953
1522,1893
2527,1853
656,2126
2810,1758
555,2306
2662,1830
883,2196
2315,1840
1734,1955
1295,2010
2676,1718
688,2047
2896,1686
701,2063
2683,1685
1256,1949
1930,1822
2354,1773
829,2000
2832,1617
671,2090
2865,1683
789,2132
2551,1723
1440,1972
1649,1927
2515,1757
788,2142
2863,1746
709,2155
2801,1760
919,2127
2439,1746
1650,1938
1443,1990
2657,1837
707,2097
2864,1744
843,2147
2704,1790
1150,2115
1970,1765
2243,1904
966,2075
2717,1783
685,2288
2839,1744
949,2150
2630,1899
1314,2099
1747,1903
2450,1805
847,2118
2825,1771
673,2219
2805,1787
1213,2023
2433,1535
2259,1977
240,3344
2370,2715
766,2274
3151,1567
884,2054
2790,1666
1424,2035
2129,1725
2512,1738
961,2019
2735,1744
593,2178
2913,1767
923,2140
2705,1717
1618,2102
1922,1870
2619,1787
823,2189
2771,1875
639,2302
2846,1917
1088,2331
2352,1915
2274,1904
1257,2008
2866,1740
791,2133
2929,1744
925,2103
2722,1800
1759,1984
1887,1807
2716,1765
806,2103
2954,1713
753,2198
2906,1744
1157,2109
2368,1767
2291,1894
1295,2015
2871,1782
771,2217
2827,1760
1039,2149
2256,1790
2138,1833
1487,1962
2813,1769
768,2224
2837,1793
913,2157
2519,1783
1562,2059
1611,1815
2582,1783
912,2087
2888,1794
688,2170
2775,1795
1028,2165
2223,1776
2157,1961
1135,2018
2846,1715
649,2161
2896,1761
900,2199
2595,1836
1606,2013
1607,1918
2601,1782
731,2076
2880,1730
767,2169
2800,1771
987,1981
2594,1510
1780,2028
528,3262
2448,2541
871,2093
3185,1550
717,2007
2875,1605
901,2033
2528,1603
1680,1929
1520,1789
2642,1679
771,2144
2914,1722
623,2008
2773,1666
1077,2006
2107,1838
2213,1906
973,2150
2734,1892
684,2279
2818,1808
721,2199
2608,1789
1186,1936
1894,1870
2453,1850
859,1964
2910,1685
823,2082
2886,1646
961,1989
2631,1652
1577,1920
1649,1869
2628,1680
882,2029
2926,1639
877,2073
2831,1711
1080,2026
2194,1695
2148,1819
1105,1984
2882,1683
794,2142
2883,1625
1222,1970
2353,1797
2319,1770
1195,1940
2836,1706
752,2155
2938,1701
1055,2051
2471,1764
2200,1792
1415,1916
2879,1727
695,2091
2930,1712
921,2122
2768,1725
1648,2016
1960,1766
2660,1747
924,2039
2909,1728
646,2111
2803,1727
1115,2118
2473,1721
2265,1889
1411,1878
2925,1681
656,2155
2915,1707
960,2064
2523,1734
1619,1954
1925,1611
2775,1453
944,1975
2185,2859
478,2992
2858,1856
1388,1921
2189,1483
2259,1634
1035,1920
2890,1601
725,2034
2892,1627
949,1994
2496,1699
1719,1874
1407,1866
2661,1676
698,2052
2869,1684
678,2127
2714,1714
1061,2087
2000,1838
2240,1838
826,2148
2757,1792
653,2118
2914,1665
768,2087
2688,1657
1407,1919
1860,1695
2512,1716
851,1991
2923,1717
704,1989
2946,1677
933,1995
2637,1663
1645,1897
1651,1767
2675,1734
749,2032
2988,1761
767,2151
2867,1758
1050,2097
2224,1751
2257,1793
1053,2096
2944,1725
822,2182
2935,1743
1238,2007
2395,1809
2429,1802
1266,1996
2923,1719
788,2139
3005,1739
1144,2154
2518,1776
2304,1803
1461,1930
2947,1750
733,2306
3043,1811
1005,2119
2695,1782
2118,1925
1616,1896
2950,1701
799,2139
3050,1763
870,2146
2769,1731
1554,1923
2331,1579
2639,1757
189,3134
2791,2618
759,2359
3345,1518
1181,1904
2505,1621
2243,1772
1680,1792
2999,1633
846,2065
3120,1714
918,2046
2781,1783
1648,1936
1835,1830
2722,1808
850,2153
3077,1746
755,2205
2985,1844
1029,2214
2368,1889
2205,1975
1227,2115
2970,1795
871,2097
3027,1677
981,2139
2736,1711
1667,1969
1802,1867
2738,1757
881,2110
3107,1695
865,2067
2987,1687
1137,2145
2329,1733
2230,1759
1130,2015
3014,1691
805,2158
3022,1712
1279,2126
2459,1808
2427,1854
1258,1947
2905,1823
734,2115
3031,1735
1073,2070
2611,1759
2219,1953
1469,1997
3039,1771
719,2227
2993,1849
832,2160
2768,1835
1676,2055
2081,1947
2733,1898
973,2114
2994,1829
689,2227
2991,1753
1042,2035
2481,1774
2266,1810
1342,1830
3274,1472
237,2897
2369,3081
868,2549
2846,1635
1742,1712
2029,1639
2715,1692
880,2021
2965,1663
679,2150
2800,1683
1053,2035
2133,1697
2233,1777
1266,1953
2873,1754
576,2164
2784,1808
816,2148
2439,1887
1607,2079
1341,1986
2537,1911
567,2259
2858,1834
590,2207
2790,1759
1113,2025
2030,1735
2291,1792
855,1965
2781,1785
566,2157
2930,1744
685,2101
2652,1733
1301,2046
1789,1811
2448,1791
749,2158
2846,1731
539,2200
2887,1787
781,2176
2528,1805
1490,1987
1557,1963
2587,1831
634,2095
2895,1751
589,2153
2770,1854
912,2159
2400,1824
1735,1987
1296,1950
2667,1789
572,2240
2883,1791
699,2229
2673,1823
1099,2102
1884,1808
2314,1839
794,2082
2715,1826
544,2219
2779,1803
868,2236
2663,1794
1364,2009
1599,1877
2437,1775
656,2153
2813,1839
563,2161
2797,1767
1088,1936
2301,1519
2027,1850
193,3392
2494,2697
618,2253
3125,1546
731,1882
2735,1627
1374,1913
1942,1756
2230,1771
727,2027
2752,1758
498,2034
2843,1702
762,2045
2638,1795
1595,2029
1682,1852
2399,1855
629,2157
2758,1833
558,2314
2799,1875
1070,2192
2246,1869
2267,1830
1041,1956
2783,1738
574,2097
2919,1658
976,2012
2622,1682
1777,1841
1689,1805
2732,1671
610,2002
2898,1663
560,2009
2797,1681
1105,2003
2245,1712
2325,1799
965,1920
2816,1670
494,2102
2891,1699
651,2112
2769,1731
1350,1938
2028,1715
2493,1760
858,2002
2857,1715
455,2107
2971,1732
749,2169
2656,1762
1634,1927
1755,1815
2669,1728
705,2190
2903,1744
559,2160
2827,1776
944,2081
2572,1728
1886,1924
1553,1954
2798,1749
604,2142
2944,1729
655,2173
2835,1759
1211,2011
2191,1766
2464,1600
1095,1680
2650,1968
0,3509
2757,2471
663,2303
3157,1578
1259,1763
2341,1622
2368,1698
1074,1969
2960,1641
534,2114
2866,1662
991,2079
2626,1685
1793,1808
1643,1771
2790,1709
623,2086
2930,1775
611,2164
2670,1859
1214,2145
1821,1840
2385,1883
975,2053
2879,1753
624,2103
2948,1703
740,2107
2647,1749
1520,1942
1679,1795
2624,1702
832,1958
2989,1659
643,2121
2874,1699
977,2075
2473,1817
1758,1913
1360,1906
2783,1709
655,2119
2964,1718
720,2209
2743,1744
1178,2107
1995,1815
2403,1834
843,2096
2894,1723
584,2159
2946,1755
718,2160
2672,1788
1400,2112
1713,1897
2505,1834
664,2251
2949,1827
497,2188
2919,1760
827,2166
2580,1830
1681,2000
1455,1939
2726,1810
656,2142
3006,1710
593,2011
3035,1490
673,2588
1701,3168
1802,2512
1510,1910
3007,1594
690,1950
2997,1693
734,2080
2757,1689
1261,2032
1825,1819
2512,1753
837,2108
2919,1755
627,2096
2931,1744
834,2129
2578,1791
1473,2028
1590,1941
2600,1885
639,2304
2899,1865
733,2181
2816,1818
1043,2075
2187,1786
2198,1759
1027,2059
2975,1739
715,2098
2945,1712
1205,2013
2427,1776
2438,1775
1090,1971
2884,1734
653,2122
2971,1775
1055,2127
2499,1777
2235,1837
1418,1970
2931,1803
585,2119
2994,1767
906,2212
2820,1757
1654,1927
1993,1807
2675,1840
838,2192
3003,1795
644,2142
2975,1728
1040,2133
2453,1779
2245,1815
1324,1947
2902,1781
657,2081
2867,1660
823,2150
2544,1869
1605,1981
1886,1877
2740,1857
768,2117
3010,1711
651,2127
2864,1739
1061,2064
2087,1786
2291,1712
1193,1789
3190,1600
95,3195
2495,2880
693,2445
2981,1583
1465,1785
1792,1680
2455,1695
960,1942
2940,1637
596,2057
2928,1691
777,2058
2573,1744
1531,1950
1525,1916
2608,1717
735,2025
2910,1737
559,2165
2759,1765
911,2240
2349,1904
1729,2023
1255,2106
2736,1794
705,2113
2914,1723
684,2055
2710,1671
1245,2002
1924,1733
2411,1749
821,2000
2875,1645
608,2111
2928,1687
691,2090
2678,1719
1493,1987
1648,1831
2559,1779
686,2030
2938,1682
496,2045
2895,1766
886,2099
2543,1767
1681,1935
1399,2009
2720,1712
631,2158
2966,1743
589,2159
2750,1782
1072,2070
1986,1796
2305,1838
829,2102
2865,1729
539,2177
2950,1802
683,2192
2705,1787
1292,2019
1803,1885
2522,1865
728,2156
2940,1780
694,2112
2909,1765
845,2225
2557,1792
1593,2015
1522,1859
2786,1894
635,2139
3101,1741
697,2264
2832,1728
1059,2112
2096,1803
2251,1824
875,1994
2816,1632
751,1984
2462,2384
330,3391
2663,2199
1488,2019
2060,1623
2529,1675
757,2017
2960,1617
701,2052
2993,1698
1104,2039
2438,1790
2345,1815
1161,1911
2896,1726
554,2176
3040,1769
885,2159
2743,1815
1712,1983
1834,1904
2715,1876
750,2154
2915,1918
606,2232
2977,1733
1207,2060
2437,1791
2439,1783
1218,1967
3126,1667
669,2217
3109,1671
955,2064
2816,1742
1869,1964
1835,1882
2890,1735
752,2103
3119,1678
747,2123
3029,1751
1233,2096
2435,1850
2466,1823
1133,2070
3134,1787
726,2171
2973,1712
1091,2139
2229,1776
2333,1877
1403,2001
3042,1787
680,2256
3043,1815
890,2237
2633,1797
1711,2077
1561,2011
2816,1855
685,2210
3103,1762
701,2187
2956,1837
1170,2043
2193,1821
2331,1856
935,1903
3206,1507
203,2567
2208,3138
643,2823
2986,1787
1601,1828
2067,1613
2620,1683
784,2001
3023,1658
620,2065
3044,1655
814,2112
2709,1783
1620,1917
1645,1844
2679,1718
715,2117
3007,1719
678,2164
2895,1793
935,2242
2480,1870
1814,1984
1296,1987
2753,1771
643,2105
3007,1774
869,2087
2798,1645
1275,1975
1962,1744
2448,1760
864,1963
2961,1664
601,2112
2981,1712
1017,2031
2480,1737
1840,1902
1280,1962
2834,1680
596,2110
3021,1738
785,2125
2775,1766
1633,1950
1887,1786
2418,1849
752,2019
2951,1782
624,2203
2928,1750
1097,2111
2400,1799
2271,1814
1152,2062
2973,1759
592,2141
2935,1760
865,2081
2688,1762
1684,2035
1781,1882
2665,1825
655,2118
2976,1847
526,2122
2969,1801
1008,2120
2385,1795
2322,1777
1118,2022
2947,1743
545,2224
2835,1594
1079,1790
2295,2115
1385,3341
1305,2576
3130,1642
717,1929
2958,1609
735,2015
2576,1659
1505,1918
1482,1908
2641,1767
743,2020
2928,1712
560,2112
2813,1744
931,2079
2386,1765
1680,1930
1200,2003
2705,1818
565,2339
2896,1863
526,2273
2640,1817
1124,2064
1801,1878
2360,1753
678,2032
2881,1754
589,2059
2910,1648
783,2032
2602,1707
1461,1921
1571,1783
2559,1751
647,2032
2943,1731
548,2130
2844,1727
835,2126
2507,1722
1682,1936
1295,1918
2727,1793
559,2171
2965,1758
576,2164
2687,1794
1075,2106
1971,1787
2291,1889
731,2113
2853,1779
462,2160
2969,1773
661,2235
2643,1769
1294,2046
1718,1840
2509,1839
594,2130
2983,1771
505,2240
2896,1795
786,2143
2576,1835
1607,2017
1390,1933
2714,1809
582,2180
2933,1759
631,2180
2759,1842
1027,2163
2038,1867
2270,1936
787,2141
2841,1817
467,2146
2971,1755
847,2151
2746,1824
1190,2047
1825,1731
2675,1520
449,2558
2160,3060
462,2790
3199,1814
1255,1850
2463,1650
1930,1781
1141,1954
2898,1669
552,2047
2992,1723
937,2114
2722,1781
1685,1931
1726,1806
2768,1714
688,2081
3005,1808
547,2211
2893,1786
1073,2167
2281,1922
2301,1917
981,2080
2850,1815
602,2144
3024,1738
715,2085
2929,1654
1405,1958
2193,1702
2618,1801
901,1931
3006,1657
560,2032
3086,1722
794,2015
2818,1747
1705,1907
1922,1808
2774,1744
741,2042
3055,1718
558,2219
3031,1756
1125,2102
2498,1805
2321,1846
1257,2034
3047,1780
528,2185
2997,1779
899,2157
2834,1799
1749,1947
1841,1840
2855,1808
720,2179
3109,1788
565,2214
2899,1798
1034,2064
2427,1866
2399,1863
1150,2053
3104,1856
629,2255
2933,1809
991,2160
2570,1785
1799,1917
1330,1872
2874,1783
774,2127
3127,1477
715,2061
2005,2762
752,3094
2394,2102
2310,1760
1210,1776
3013,1721
690,2084
3046,1675
681,2107
2763,1722
1466,1984
1693,1837
2624,1837
623,2122
3019,1803
577,2071
2931,1746
866,2141
2597,1821
1677,2123
1371,1991
2761,1892
496,2240
2997,1807
504,2211
2871,1778
1088,2063
2075,1755
2351,1835
811,2067
2902,1719
535,2125
3056,1678
700,2137
2773,1766
1280,1971
1837,1919
2557,1776
669,2094
3002,1728
587,2113
2987,1747
790,2141
2640,1799
1628,1995
1552,1998
2735,1819
635,2064
3025,1714
656,2143
2899,1689
990,2188
2469,1826
1894,1921
1248,1967
2832,1775
515,2118
3045,1778
823,2106
2758,1818
1214,2079
1872,1806
2398,1844
704,2113
2948,1819
561,2236
3027,1831
989,2159
2640,1726
1495,1920
1543,1802
2638,1749
619,2185
3056,1616
770,1888
3017,1621
445,3284
2247,2739
1799,2128
1564,1659
2883,1607
583,2011
3067,1666
741,1979
2807,1653
1503,1863
1938,1713
2355,1770
737,2095
2907,1689
454,2122
2989,1711
886,1989
2654,1757
1734,1974
1663,1894
2491,1856
522,2167
2877,1855
497,2163
2895,1718
1229,1989
2288,1711
2467,1727
943,1889
2769,1687
509,1982
3017,1685
781,1984
2874,1632
1466,1873
2062,1666
2637,1685
832,1947
2883,1689
473,2068
3025,1697
919,2017
2715,1751
1730,1891
1742,1757
2757,1745
626,2079
2949,1735
595,2170
2901,1712
1150,2066
2398,1806
2384,1793
1085,2003
3009,1792
542,2099
2974,1789
880,2123
2705,1755
1774,1888
1709,1825
2807,1806
659,2112
3023,1744
558,2287
2922,1805
1142,2066
2353,1823
2430,1851
1037,1989
3003,1741
554,2071
2892,1811
976,2107
2462,1797
1839,1903
1655,1648
3152,1468
384,2590
2406,3061
602,2735
3021,1663
1437,1759
1922,1613
2491,1651
1147,1885
3106,1648
655,2127
2896,1760
1121,1962
2113,1744
2351,1746
791,1963
2913,1726
458,2147
3031,1786
657,2131
2757,1797
1291,2143
1787,1939
2476,1849
656,2203
2986,1744
570,2074
3061,1648
845,2033
2815,1671
1600,1883
1616,1679
2832,1681
646,1966
3136,1633
739,2009
2997,1677
978,2000
2637,1712
1904,1872
1355,1871
2930,1690
602,2016
3157,1678
875,2081
2864,1765
1278,2032
1995,1835
2558,1808
838,2026
3055,1655
741,2142
3119,1717
1063,2021
2580,1839
1954,1859
1283,1973
2994,1728
611,2083
3178,1728
880,2094
2909,1770
1723,1970
1930,1822
2417,1870
806,2096
3116,1771
720,2128
3121,1759
1157,2077
2558,1847
2493,1747
1262,2009
3185,1740
560,2128
3280,1532
1143,1790
2654,1761
1343,3017
1261,2634
3335,1813
761,1887
3344,1497
882,1979
3149,1655
1641,1887
2155,1734
2897,1728
858,1969
3245,1680
587,2059
3123,1680
1008,2079
2800,1777
2339,1863
1414,2039
3184,1802
666,2193
3125,1827
865,2255
2798,1889
1689,2053
1624,1968
2898,1792
829,2058
3264,1652
693,2159
3089,1737
1153,2075
2330,1717
2384,1808
950,1994
3047,1722
827,2079
3230,1703
741,2169
2959,1733
1346,2017
2003,1770
2610,1809
866,2091
3155,1793
639,2239
3189,1744
880,2096
2816,1748
1627,2032
1643,1887
2799,1808
647,2155
3173,1827
620,2149
3079,1785
990,2161
2630,1872
1879,2001
1280,1984
2878,1869
529,2206
3197,1787
640,2198
2908,1840
1200,2125
2032,1819
2507,1867
688,2095
3007,1827
506,2097
3095,1643
848,1860
2755,1868
578,3547
2034,2653
2480,1967
976,1772
2994,1560
520,2046
3088,1648
609,2098
2787,1715
1233,2013
1802,1786
2508,1809
638,2064
2960,1693
410,2119
2995,1761
642,2187
2576,1840
1433,2071
1414,1984
2577,1887
415,2174
2922,1873
464,2192
2840,1857
795,2107
2474,1797
1759,1900
1152,1872
2798,1747
389,2099
3045,1680
637,2064
2818,1776
1050,2069
1865,1711
2367,1725
496,1934
2896,1691
398,2137
2951,1776
807,2131
2590,1771
1283,1943
1558,1855
2543,1803
451,2102
2948,1760
502,2198
2855,1755
1079,2074
2193,1816
2025,1854
855,2032
2713,1770
359,2170
2965,1786
579,2176
2749,1843
1345,1951
1878,1754
2246,1841
613,2086
2803,1785
368,2192
2931,1805
721,2162
2663,1750
1680,1901
1585,1831
2493,1741
449,2173
2931,1867
434,2211
2884,1783
1023,2062
2285,1792
2333,1830
832,2029
2625,1765
330,2014
3216,1473
225,2756
2109,3085
1207,2513
2240,1679
2639,1574
670,1885
2814,1683
313,2127
2958,1726
695,2046
2727,1698
1477,1865
1731,1746
2720,1793
468,2086
2960,1749
368,2224
2929,1773
873,2122
2621,1809
1818,1911
1451,2001
2817,1852
437,2218
2961,1856
518,2132
2932,1740
1296,1984
2239,1739
2537,1776
930,2064
3030,1690
442,2022
3091,1698
701,2074
2870,1694
1506,1911
1923,1738
2739,1763
687,2026
3103,1680
502,2137
3027,1731
878,2096
2742,1764
1794,1885
1649,1822
2907,1712
557,2090
3058,1734
504,2188
3015,1745
1154,2062
2352,1759
2494,1817
971,1985
2994,1728
507,2182
2995,1783
646,2217
2885,1835
1430,2010
2086,1808
2647,1798
714,2032
3066,1690
443,2143
2931,1729
825,2159
2767,1687
1713,1712
1913,1582
2217,2429
49,3169
2928,2187
651,2161
3246,1486
792,1893
2899,1638
1562,1914
1927,1738
2738,1679
646,2011
3042,1664
453,2132
2966,1690
899,2042
2753,1772
1808,1962
1565,1815
2855,1798
443,2246
3008,1905
504,2238
2707,1866
1136,2174
2251,1776
2478,1823
879,1939
2991,1689
399,2112
3043,1725
723,2137
2723,1687
1408,1904
2014,1754
2688,1716
686,2030
3063,1728
400,2140
3024,1781
867,2097
2577,1756
1809,1899
1739,1858
2860,1769
559,2119
3139,1761
499,2251
2883,1799
1104,2064
2005,1786
2446,1798
1037,2013
3102,1786
523,2224
2919,1840
925,2098
2526,1831
1799,1949
1121,1986
2846,1814
474,2205
3120,1904
575,2304
2874,1855
1149,2151
1855,1741
2484,1858
704,2091
2979,1750
507,2097
3056,1621
935,1958
2283,2454
733,3398
2070,2293
2613,1763
907,1881
3054,1582
579,2031
3131,1691
633,2151
2841,1721
1265,1959
1741,1840
2558,1799
622,2034
3035,1698
471,2147
3022,1782
698,2141
2661,1871
1520,2064
1350,1993
2722,1870
496,2235
2993,1865
496,2174
2896,1790
978,2130
2482,1807
1894,1896
1171,1859
2898,1680
537,2112
3115,1705
593,2128
2832,1790
1235,2007
1913,1717
2512,1771
656,2075
2995,1719
431,2208
3024,1742
679,2077
2746,1855
1499,2003
1577,1866
2684,1805
464,2109
3078,1772
506,2224
2953,1738
958,2131
2538,1810
1776,1983
1290,1947
2858,1737
437,2137
3104,1766
691,2160
2882,1821
1073,2041
1978,1808
2425,1917
655,2119
2941,1784
428,2183
3055,1790
798,2160
2768,1819
1386,2112
1668,1889
2669,1909
570,2080
3117,1717
569,2093
3029,1759
1098,2023
2363,1789
2365,1687
1205,1700
2734,2199
0,3496
2981,2401
774,2095
3280,1501
1040,1904
2538,1697
1917,1840
1195,1831
2946,1666
546,2083
3120,1627
861,2094
2815,1730
1696,1882
1757,1765
2823,1767
619,2090
3008,1754
487,2257
3037,1804
982,2191
2618,1875
1968,1958
1454,1837
2940,1763
571,2053
3131,1687
688,2067
2965,1675
1406,1953
2211,1677
2672,1685
833,1904
3151,1638
493,2015
3165,1659
771,2034
2899,1710
1645,1899
1921,1698
2778,1681
619,2015
3117,1680
495,2103
3127,1709
1018,2047
2542,1833
2349,1776
1232,1946
3109,1682
465,2062
3053,1706
860,2099
2845,1769
1680,1935
1840,1744
2864,1728
639,2061
3126,1714
481,2146
2907,1744
999,2039
2718,1804
2021,1887
1476,1875
2943,1765
546,2194
3175,1781
598,2195
2818,1788
1283,2016
2288,1778
2608,1811
887,1971
3098,1732
482,2160
3063,1634
814,1922
2823,1571
814,2816
1897,3088
2443,2102
1216,1835
3285,1504
499,1995
2971,1631
966,2034
2541,1718
1863,1840
1584,1738
2937,1744
561,2047
3088,1696
555,2110
2815,1810
1168,2037
1796,1825
2465,1886
576,2046
2963,1815
406,2189
3008,1891
691,2251
2702,1840
1431,2017
1535,1834
2743,1728
478,2112
3157,1684
511,2064
3009,1702
952,2101
2589,1813
1742,1899
1251,1847
2894,1702
384,2131
3130,1702
539,2137
2931,1777
1114,2066
2006,1739
2453,1801
704,2055
2985,1754
463,2106
3103,1717
649,2168
2803,1792
1424,1985
1664,1891
2695,1763
601,2034
3110,1776
535,2125
3035,1832
843,2144
2557,1837
1648,2014
1360,1934
2863,1788
529,2137
3149,1765
659,2113
2896,1759
1046,2084
2077,1818
2385,1788
793,1933
2960,1553
778,1842
2689,2394
309,3424
2810,2271
1554,1930
1957,1525
2691,1556
720,1984
3158,1667
555,2043
3156,1659
1147,2066
2526,1789
2066,1777
1097,1978
3058,1691
543,2111
3190,1714
976,2145
2850,1840
1872,2019
1697,1877
2624,1854
638,2160
3122,1775
653,2245
3153,1743
1263,2032
2517,1780
2608,1706
1088,1873
3308,1667
630,2033
3264,1712
1150,2057
2749,1773
2411,1770
1282,1856
3269,1686
551,2064
3217,1719
883,2101
3053,1725
1790,2026
2036,1795
2965,1734
768,2043
3312,1729
609,2160
3165,1792
1164,2092
2659,1850
2507,1898
1357,1984
3290,1773
674,2142
3216,1787
1040,2173
2468,1873
2266,1911
1083,2046
3213,1790
675,2158
3277,1794
893,2240
2813,1899
1586,2095
1693,1827
2832,1822
710,2161
3282,1776
653,2186
3172,1760
985,2138
2736,1863
1968,1923
1323,1882
2951,1599
869,1811
2991,2266
0,3632
3280,2431
785,2217
3280,1515
1360,1865
1983,1646
2578,1738
702,1935
3107,1669
528,2141
3215,1670
711,2108
2880,1788
1490,1941
1665,1871
2705,1763
478,2122
3131,1858
454,2173
3035,1809
783,2225
2640,1893
1680,2058
1285,1976
2883,1769
410,2176
3163,1698
543,2033
3023,1703
1126,1994
2123,1742
2471,1775
739,1978
3043,1744
375,2169
3173,1769
635,2116
2851,1745
1302,1984
1789,1754
2668,1801
574,2121
3099,1789
448,2132
3055,1782
698,2138
2706,1746
1597,1941
1405,1903
2771,1776
530,2194
3111,1764
506,2128
2971,1728
904,2096
2545,1829
1869,1906
1106,1951
2928,1819
345,2096
3099,1687
644,2163
2823,1859
1131,2023
1787,1766
2500,1851
601,2064
2986,1728
350,2102
3066,1746
912,2054
2705,1775
1351,1913
1456,1639
2911,1503
0,2798
1941,2928
276,2479
3296,1699
523,1884
3008,1586
786,1959
2544,1718
1744,1819
1130,1750
2848,1673
261,2002
3088,1719
355,2174
2799,1708
942,1989
2273,1787
2035,1921
770,2043
2717,1826
256,2344
2965,1873
302,2288
2783,1871
779,2137
2425,1836
1793,1901
995,1889
2681,1779
619,1934
3126,1680
323,1999
2995,1703
731,2096
2619,1748
1664,1879
1122,1839
2859,1719
421,2008
3061,1728
288,2135
2911,1792
955,2000
2367,1840
1975,1847
848,2013
2747,1811
505,2079
3120,1741
304,2183
2953,1840
891,2123
2463,1865
1814,1930
1050,1963
2887,1814
430,2155
3102,1779
428,2228
2746,1807
1125,2139
1774,1901
2454,1871
525,2119
3029,1811
380,2043
3092,1803
565,2153
2705,1843
1470,1983
1442,1726
2800,1571
359,2128
2185,2964
65,3164
3136,2031
811,2045
2883,1584
1386,1961
1667,1707
2621,1709
414,2070
3044,1767
453,2096
3059,1820
671,2125
2674,1811
1596,1951
1303,1854
2795,1831
309,2163
3093,1846
414,2269
2885,1909
874,2276
2464,1907
1866,2010
1014,2008
2918,1779
365,2227
3152,1760
541,2093
2890,1771
1215,1903
1872,1717
2551,1765
599,2014
3088,1717
384,2091
3143,1700
670,2079
2742,1744
1505,1947
1552,1840
2777,1803
554,2136
3139,1815
558,2213
3000,1787
848,2101
2608,1764
1776,1906
1246,1957
2915,1751
442,2128
3173,1726
714,2192
2877,1806
1104,2061
1961,1813
2451,1819
670,2054
3020,1728
429,2162
3053,1847
848,2118
2832,1875
1346,2039
1648,1849
2653,1808
522,2075
3103,1744
557,2158
3057,1710
1097,2057
2359,1725
2131,1583
956,1884
2147,2829
218,3120
3222,1968
959,1950
3029,1518
1459,1843
2034,1698
2333,1745
720,2000
2986,1697
391,2031
3105,1692
818,2061
2781,1707
1658,1936
1632,1774
2500,1758
456,2103
2970,1763
347,2195
2933,1881
948,2160
2579,1938
1938,2031
1381,1887
2730,1721
448,2032
3137,1685
601,2017
2967,1703
1348,2062
2173,1697
2677,1743
739,1926
2871,1699
370,2064
3117,1712
757,2161
2894,1829
1609,2010
1897,1813
2795,1776
610,2119
3015,1744
380,2141
3057,1799
1008,2183
2503,1850
2312,1799
1088,1897
3071,1735
442,2224
3123,1759
721,2127
2866,1798
1584,1968
1827,1793
2864,1779
506,2114
3079,1728
397,2191
3085,1803
900,2122
2657,1764
1894,1925
1476,1951
2928,1792
519,2112
3111,1773
490,2145
2958,1849
1168,1986
2229,1767
2569,1893
843,2030
3113,1785
351,2064
3023,1747
643,2127
2859,1791
1438,1985
1889,1642
2777,1529
688,1919
2253,2811
96,3311
3087,2007
795,1977
3099,1585
1332,1902
2128,1659
2624,1712
689,1949
3059,1653
375,2082
3015,1761
719,2058
2871,1751
1613,1951
1721,1739
2785,1744
533,2150
3084,1831
431,2279
2828,1903
909,2275
2640,1934
1865,2032
1427,1845
2917,1792
423,2066
3120,1693
550,2093
2825,1778
1225,2064
2278,1713
2589,1713
779,1930
3088,1713
324,2047
3083,1781
655,2072
2749,1793
1513,2004
1991,1856
2736,1729
570,2011
3123,1712
427,2160
2992,1802
912,2140
2582,1782
1821,1942
1639,1904
2909,1743
510,2128
3183,1762
398,2098
2965,1782
1086,2096
1961,1869
2502,1909
544,1987
2970,1761
372,2113
3184,1803
598,2223
2775,1886
1373,2047
1660,1882
2672,1764
560,2102
3140,1729
437,2157
3081,1707
754,1946
2876,1648
1045,2832
838,3018
2499,2162
1113,1840
3312,1469
539,1970
2965,1671
1018,2010
2071,1712
2380,1774
783,1939
2978,1695
453,2079
3146,1680
554,2177
2879,1789
1225,2098
1716,1792
2525,1793
633,2141
3024,1794
450,2200
3035,1869
698,2179
2677,1867
1559,1985
1456,1846
2803,1696
487,2022
3230,1648
634,2029
3041,1666
962,2037
2654,1827
1879,1863
1185,1911
2975,1712
443,2135
3217,1646
811,2077
2917,1783
1218,2042
1914,1821
2527,1784
623,2047
3094,1738
430,2156
3140,1872
1035,2139
2549,1821
1951,1936
1174,1877
2967,1762
455,2138
3173,1758
784,2126
2941,1808
1682,1997
1906,1791
2543,1799
641,2064
3071,1730
384,2171
3206,1802
981,2149
2843,1929
2000,1947
1567,1786
2761,1745
560,2069
3212,1706
581,2171
3143,1762
1232,1866
2530,1507
2421,2222
265,3472
2960,2439
674,1925
3485,1433
869,2010
3067,1626
1590,1922
2065,1712
2803,1691
747,1948
3152,1699
498,2099
3222,1695
976,2086
2849,1829
1840,1865
1776,1790
2965,1798
582,2128
3118,1886
525,2250
3050,1856
1175,2130
2368,1923
2524,1802
1072,1984
3247,1706
499,2052
3146,1707
1078,2054
2640,1774
2416,1763
1235,1859
3276,1755
437,2070
3207,1751
880,2060
2826,1746
1728,1960
1969,1825
2915,1743
657,2097
3282,1764
474,2181
3141,1793
1074,2076
2263,1765
2451,1825
818,2047
3103,1722
591,2104
3316,1810
550,2139
3023,1825
1321,2093
1894,1835
2671,1810
698,2099
3200,1783
517,2179
3240,1827
694,2192
2864,1825
1546,2033
1591,1858
2799,1840
560,2128
3220,1821
437,2145
3092,1841
942,2191
2715,1846
1859,2011
1392,2078
2988,1855
449,2172
3247,1791
529,2180
3006,1810
1059,2133
1985,1706
2476,1664
761,1994
2306,2869
288,3284
3189,2020
784,1995
3008,1625
1353,1935
1655,1754
2633,1790
528,1985
3127,1759
497,2175
3085,1770
703,2197
2719,1839
1605,1951
1277,1858
2787,1794
366,2161
3107,1823
530,2268
2899,1919
866,2289
2480,2000
1810,2000
1035,1988
2939,1776
338,2070
3167,1699
821,2112
2930,1729
1241,2037
1813,1806
2579,1785
491,1999
3131,1691
314,2119
3206,1737
991,2085
2800,1806
1444,2058
1471,1818
2668,1755
375,2192
3123,1771
400,2224
3039,1786
1181,2089
2277,1843
2176,1920
783,2054
2871,1754
306,2128
3168,1798
521,2179
2946,1840
1467,1990
1978,1819
2339,1904
485,2178
2944,1863
336,2231
3121,1887
783,2219
2835,1839
1744,1968
1633,1823
2646,1805
424,2160
3120,1779
446,2227
3063,1651
1203,1767
2115,2139
1616,3031
738,2525
3008,1879
592,1954
3322,1591
525,2128
3020,1691
1309,1978
2139,1682
2658,1741
707,2038
2977,1779
336,2099
3154,1744
734,2130
2899,1773
1575,1968
1791,1761
2803,1821
452,2143
2998,1889
353,2240
3088,1859
951,2126
2752,1840
1935,1857
1431,1824
2995,1721
451,1975
3213,1663
575,2146
3120,1690
1264,1977
2269,1683
2608,1791
738,1974
3141,1680
363,2082
3199,1734
683,2023
2990,1746
1520,2013
2003,1782
2783,1747
581,2065
3202,1700
379,2117
3200,1739
779,2112
2839,1762
1798,1898
1694,1797
2941,1709
415,2037
3212,1722
463,2128
3115,1728
1008,2081
2368,1862
2467,1871
930,1961
3061,1765
342,2039
3181,1674
543,2129
3010,1725
1335,1943
2126,1813
2679,1647
738,1755
3344,1534
0,3117
2299,3030
265,2469
3538,1626
884,1937
2915,1564
1696,1780
1840,1755
2862,1631
497,1962
3066,1710
335,2047
3083,1774
967,2101
2746,1698
1947,1840
1420,1812
2943,1791
427,2157
3059,1877
336,2224
2930,1872
1155,2115
2155,1872
2559,1809
727,1967
3042,1705
386,2117
3194,1714
645,2035
2986,1728
1520,1895
1984,1729
2804,1744
547,2001
3195,1712
401,2027
3185,1697
850,2067
2864,1808
1823,1927
1631,1815
2914,1834
445,2096
3200,1733
400,2238
3120,1735
1104,2061
2405,1814
2463,1872
934,2059
3041,1779
443,2121
3171,1796
595,2178
3015,1824
1442,2000
2094,1749
2651,1817
743,2128
3182,1786
365,2214
3197,1817
778,2128
2945,1786
1691,2003
1776,1760
2895,1744
542,2077
3242,1739
479,1997
3188,1520
1041,2255
1865,3104
2390,2494
1158,1904
3439,1578
354,1865
3171,1660
730,2145
2704,1712
1710,1911
1235,1821
3002,1715
431,2013
3205,1769
385,2162
2955,1803
915,2095
2457,1903
1952,1930
960,2059
2703,1885
496,2230
3113,1963
289,2229
3010,1856
880,2132
2608,1831
1827,1891
1898,1791
2970,1738
554,2091
3227,1682
401,2105
3043,1710
1135,1981
1959,1735
2517,1808
711,2107
3115,1763
381,2090
3218,1781
478,2163
2861,1787
1359,1993
1708,1861
2704,1815
478,2110
3167,1718
384,2139
3136,1808
693,2171
2660,1885
1623,1986
1326,1906
2877,1808
355,2160
3213,1799
420,2271
3003,1790
852,2157
2539,1866
1867,1998
925,2002
2736,1867
786,2125
3162,1806
320,2240
3078,1808
755,2155
2658,1822
1664,1985
1198,1872
2864,1767
591,1959
3481,1520
217,2402
2096,3054
839,2735
2597,1841
2142,1680
944,1771
2797,1664
562,2033
3179,1678
350,2143
3022,1725
774,2122
2615,1790
1712,1888
1178,1968
2930,1818
403,2134
3149,1817
330,2222
2895,1827
986,2128
2323,1877
1915,2028
782,2047
2768,1968
457,2144
3154,1685
359,2058
2971,1714
909,2032
2539,1778
1842,1861
1695,1808
2975,1691
379,2109
3229,1746
381,2163
2906,1715
1058,1957
1742,1666
2490,1755
398,2006
3051,1762
327,2125
3136,1725
629,2186
2767,1774
1420,2006
1471,1792
2711,1827
354,2014
3136,1744
373,2186
3019,1747
822,2169
2631,1781
1712,1968
1181,1959
2848,1814
176,2190
3182,1794
432,2205
2946,1867
1069,2130
1990,1808
2439,1799
653,2066
3088,1787
266,2115
3184,1734
465,1973
3152,1526
1059,2391
991,3250
2218,2542
964,1995
3147,1521
545,1840
3223,1651
398,2082
2974,1753
1105,2129
1941,1819
2459,1805
625,2093
3047,1703
368,2017
3171,1743
475,2167
2841,1951
1344,2155
1551,2087
2613,1851
418,2171
3094,1873
276,2211
3101,1873
683,2170
2683,1822
1683,1935
1403,1808
2918,1674
495,2096
3248,1711
384,2125
3033,1754
973,2047
2567,1797
1941,1793
1151,1968
3061,1726
385,2185
3195,1741
499,2130
2899,1771
1182,2043
1840,1717
2610,1791
570,2080
3115,1786
519,2123
3174,1729
592,2023
2793,1811
1483,1941
1437,1799
2788,1776
409,2031
3250,1750
496,2143
3126,1744
697,2183
2672,1838
1776,1879
1241,1968
3009,1777
354,2053
3248,1710
646,2115
3026,1795
1094,2127
1969,1732
2543,1841
602,2019
3088,1733
547,2194
3154,1795
851,2173
2890,1855
1305,2000
1658,1794
2683,1801
433,1840
3402,1477
350,2457
2334,3135
1006,2711
2633,1856
2693,1622
992,1857
2875,1616
304,2017
3233,1687
626,2160
3013,1690
1403,1943
2192,1746
2687,1792
697,1971
2994,1745
313,2178
3230,1778
692,2166
2874,1904
1552,2037
1895,1974
2797,1873
530,2171
3104,1872
347,2111
3216,1707
976,2037
2862,1723
1993,1840
1648,1793
3083,1715
555,1982
3307,1733
561,2143
3194,1669
1215,1924
2416,1710
2629,1715
923,1984
3200,1646
407,2086
3338,1734
623,2112
3101,1759
1478,1966
2112,1744
2843,1792
709,2026
3227,1822
443,2044
3282,1703
822,2131
2987,1834
1767,1984
1843,1835
3010,1769
576,2102
3283,1741
498,2183
3238,1745
1082,2103
2585,1877
2447,1823
1014,1982
3258,1729
439,2158
3134,1811
809,2179
3022,1741
1872,1922
1743,1825
3024,1783
