1,4095
2,4095
3,4095
4,4095
5,4095
6,4095
7,4095
8,4095
9,4095
10,4095
11,4095
12,4095
13,4095
14,4095
15,4095
16,4095
17,4095
18,4095
19,4095
20,4095
21,4095
22,4095
23,4095
24,4095
25,4095
26,4095
27,4095
28,4095
29,4095
30,4095
31,3927
32,3851
33,3781
34,3733
35,3664
36,3600
37,3536
38,3472
39,3417
40,3362
41,3307
42,3249
43,3202
44,2597
45,2582
46,2576
47,2577
48,2592
49,2619
50,2659
51,2704
52,2768
53,2837
54,2915
55,3007
56,3120
57,4095
58,4095
59,4095
60,4095
61,4095
62,4095
63,4095
64,4095
65,4095
66,4095
67,4095
68,4095
69,4095
70,4095
71,4095
72,4095
73,4095
74,4095
75,4095
76,4095
77,4095
78,4095
79,4095
80,4095
81,4095
82,4095
83,4095
84,4095
85,4095
86,4095
87,4095
88,4074
89,3999
90,3935
91,3871
92,3799
93,3737
94,3671
95,3607
96,3543
97,2805
98,2769
99,2736
100,2704
101,2669
102,2639
103,2619
104,2608
105,2608
106,2625
107,2656
108,2704
109,2748
110,4095
111,4095
112,4095
113,4095
114,4095
115,4095
116,4095
117,4095
118,4095
119,4095
120,4095
121,4095
122,4095
123,4095
124,4095
125,4095
126,4095
127,4095
128,4095
129,4095
130,4095
131,4095
132,4095
133,4095
134,4095
135,4095
136,4095
137,4095
138,4095
139,4095
140,4095
141,4095
142,4095
143,4095
144,4095
145,3270
146,3217
147,3163
148,3120
149,3071
150,3024
151,2979
152,2939
153,2903
154,2864
155,2822
156,2793
157,3085
158,3200
159,3329
160,3479
161,3662
162,3866
163,4093
164,4095
165,4095
166,4095
167,4095
168,4095
169,4095
170,4095
171,4095
172,4095
173,4095
174,4095
175,4095
176,4095
177,4095
178,4095
179,4095
180,4095
181,4095
182,4095
183,4095
184,4095
185,4095
186,4095
187,4095
188,4095
189,4095
190,4095
191,4095
192,4095
193,3475
194,3412
195,3351
196,3309
197,3253
198,3201
199,3152
200,3107
201,3056
202,3015
203,2970
204,2930
205,2623
206,2677
207,2746
208,2816
209,2897
210,2993
211,3106
212,3230
213,3375
214,3527
215,3707
216,3934
217,4095
218,4095
219,4095
220,4095
221,4095
222,4095
223,4095
224,4095
225,4095
226,4095
227,4095
228,4095
229,4095
230,4095
231,4095
232,4095
233,4095
234,4095
235,4095
236,4095
237,4095
238,4095
239,4095
240,4095
241,3606
242,3536
243,3474
244,3414
245,3365
246,3311
247,3257
248,3205
249,3153
250,3109
251,3058
252,3018
253,2480
254,2475
255,2481
256,2503
257,2506
258,2586
259,2638
260,2703
261,2771
262,2851
263,2944
264,3034
265,4095
266,4095
267,4095
268,4095
269,4095
270,4095
271,4095
272,4095
273,4095
274,4095
275,4095
276,4095
277,4095
278,4095
279,4095
280,4095
281,4095
282,4095
283,4095
284,4095
285,4095
286,4095
287,4095
288,4095
289,3827
290,3760
291,3703
292,3632
293,3569
294,3510
295,3446
296,3393
297,3339
298,3282
299,3233
300,3184
301,2570
302,2538
303,2511
304,2483
305,2465
306,2452
307,2449
308,2459
309,2475
310,2496
311,2530
312,2576
313,4095
314,4095
315,4095
316,4095
317,4095
318,4095
319,4095
320,4095
321,4095
322,4095
323,4095
324,4095
325,4095
326,4095
327,4095
328,4095
329,4095
330,4095
331,4095
332,4095
333,4095
334,4095
335,4095
336,4095
337,3975
338,3899
339,3840
340,3728
341,3709
342,3645
343,3583
344,3531
345,3455
346,3397
347,3344
348,3286
349,2597
350,2555
351,2544
352,2501
353,2479
354,2448
355,2420
356,2397
357,2377
358,2363
359,2361
360,2364
361,3278
362,3397
363,3526
364,3674
365,3833
366,4010
367,4095
368,4095
369,4095
370,4095
371,4095
372,4095
373,4095
374,4095
375,4095
376,4095
377,4095
378,4095
379,4095
380,4095
381,4095
382,4095
383,4095
384,4095
385,4095
386,4035
387,3974
388,3911
389,3840
390,3779
391,3712
392,3646
393,3578
394,3521
395,3463
396,3402
397,2752
398,2715
399,2686
400,2651
401,2623
402,2587
403,2557
404,2526
405,2498
406,2468
407,2448
408,2417
409,3024
410,3138
411,3253
412,3393
413,3545
414,3732
415,3919
416,4095
417,4095
418,4095
419,4095
420,4095
421,4095
422,4095
423,4095
424,4095
425,4095
426,4095
427,4095
428,4095
429,4095
430,4095
431,4095
432,4095
433,4095
434,4095
435,4095
436,4095
437,4095
438,4095
439,4095
440,4075
441,4011
442,3941
443,3882
444,3823
445,2993
446,2946
447,2906
448,2864
449,2832
450,2814
451,2759
452,2726
453,2688
454,2658
455,2629
456,2597
457,2686
458,2768
459,2838
460,2935
461,3038
462,3149
463,3297
464,3424
465,3582
466,3771
467,3967
468,4095
469,4095
470,4095
471,4095
472,4095
473,4095
474,4095
475,4095
476,4095
477,4095
478,4095
479,4095
480,4095
481,4095
482,4095
483,4095
484,4095
485,4095
486,4095
487,4095
488,4095
489,4095
490,4095
491,4095
492,4095
493,3222
494,3170
495,3129
496,3088
497,3031
498,2990
499,2946
500,2910
501,2870
502,2837
503,2800
504,2759
505,2496
506,2529
507,2578
508,2638
509,2704
510,2782
511,2864
512,2949
513,3046
514,3167
515,3289
516,3440
517,4095
518,4095
519,4095
520,4095
521,4095
522,4095
523,4095
524,4095
525,4095
526,4095
527,4095
528,4095
529,4095
530,4095
531,4095
532,4095
533,4095
534,4095
535,4095
536,4095
537,4095
538,4095
539,4095
540,4095
541,3611
542,3541
543,3486
544,3419
545,3369
546,3312
547,3259
548,3205
549,3160
550,3114
551,3065
552,3019
553,2518
554,2501
555,2505
556,2515
557,2544
558,2558
559,2628
560,2675
561,2740
562,2810
563,2887
564,2978
565,4095
566,4095
567,4095
568,4095
569,4095
570,4095
571,4095
572,4095
573,4095
574,4095
575,4095
576,4095
577,4095
578,4095
579,4095
580,4095
581,4095
582,4095
583,4095
584,4095
585,4095
586,4095
587,4095
588,4095
589,3991
590,3930
591,3852
592,3794
593,3729
594,3658
595,3602
596,3536
597,3475
598,3414
599,3361
600,3311
601,2649
602,2619
603,2589
604,2546
605,2526
606,2511
607,2511
608,2516
609,2538
610,2570
611,2606
612,2659
613,4095
614,4095
615,4095
616,4095
617,4095
618,4095
619,4095
620,4095
621,4095
622,4095
623,4095
624,4095
625,4095
626,4095
627,4095
628,4095
629,4095
630,4095
631,4095
632,4095
633,4095
634,4095
635,4095
636,4095
637,4095
638,4095
639,4095
640,4095
641,4034
642,3967
643,3909
644,3841
645,3783
646,3713
647,3653
648,3591
649,2678
650,2643
651,2610
652,2579
653,2547
654,2518
655,2496
656,2468
657,2443
658,2426
659,2418
660,2427
661,3919
662,4095
663,4095
664,4095
665,4095
666,4095
667,4095
668,4095
669,4095
670,4095
671,4095
672,4095
673,4095
674,4095
675,4095
676,4095
677,4095
678,4095
679,4095
680,4095
681,4095
682,4095
683,4095
684,4095
685,4095
686,4095
687,4095
688,4095
689,4077
690,4016
691,3946
692,3879
693,3813
694,3759
695,3692
696,3613
697,2891
698,2853
699,2813
700,2778
701,2743
702,2705
703,2672
704,2640
705,2612
706,2579
707,2547
708,2516
709,3164
710,3286
711,3425
712,3573
713,3760
714,3943
715,4095
716,4095
717,4095
718,4095
719,4095
720,4095
721,4095
722,4095
723,4095
724,4095
725,4095
726,4095
727,4095
728,4095
729,4095
730,4095
731,4095
732,4095
733,4095
734,4095
735,4095
736,4095
737,4095
738,4095
739,4095
740,4095
741,4039
742,3984
743,3919
744,3854
745,3040
746,2995
747,2959
748,2917
749,2894
750,2834
751,2801
752,2768
753,2731
754,2699
755,2666
756,2636
757,2816
758,2896
759,2993
760,3099
761,3162
762,3341
763,3491
764,3665
765,3851
766,4061
767,4095
768,4095
769,4095
770,4095
771,4095
772,4095
773,4095
774,4095
775,4095
776,4095
777,4095
778,4095
779,4095
780,4095
781,4095
782,4095
783,4095
784,4095
785,4095
786,4095
787,4095
788,4095
789,4095
790,4095
791,4095
792,4095
793,3225
794,3172
795,3147
796,3079
797,3034
798,2991
799,2946
800,2909
801,2871
802,2832
803,2797
804,2761
805,2547
806,2601
807,2661
808,2723
809,2795
810,2870
811,2962
812,3063
813,3179
814,3311
815,3446
816,3611
817,4095
818,4095
819,4095
820,4095
821,4095
822,4095
823,4095
824,4095
825,4095
826,4095
827,4095
828,4095
829,4095
830,4095
831,4095
832,4095
833,4095
834,4095
835,4095
836,4095
837,4095
838,4095
839,4095
840,4095
841,3493
842,3435
843,3378
844,3322
845,3267
846,3216
847,3170
848,3122
849,3071
850,3025
851,2987
852,2945
853,2371
854,2370
855,2385
856,2409
857,2433
858,2475
859,2464
860,2578
861,2642
862,2709
863,2787
864,2869
865,4095
866,4095
867,4095
868,4095
869,4095
870,4095
871,4095
872,4095
873,4095
874,4095
875,4095
876,4095
877,4095
878,4095
879,4095
880,4095
881,4095
882,4095
883,4095
884,4095
885,4095
886,4095
887,4095
888,4095
889,3615
890,3547
891,3485
892,3427
893,3373
894,3328
895,3295
896,3210
897,3162
898,3120
899,3066
900,3024
901,2498
902,2478
903,2446
904,2432
905,2419
906,2422
907,2432
908,2455
909,2486
910,2529
911,2576
912,2634
913,4095
914,4095
915,4095
916,4095
917,4095
918,4095
919,4095
920,4095
921,4095
922,4095
923,4095
924,4095
925,4095
926,4095
927,4095
928,4095
929,4095
930,4095
931,4095
932,4095
933,4095
934,4095
935,4095
936,4095
937,4039
938,3953
939,3891
940,3827
941,3747
942,3709
943,3632
944,3568
945,3504
946,3447
947,3390
948,3335
949,2667
950,2631
951,2601
952,2559
953,2542
954,2510
955,2480
956,2461
957,2451
958,2448
959,2455
960,2480
961,4095
962,4095
963,4095
964,4095
965,4095
966,4095
967,4095
968,4095
969,4095
970,4095
971,4095
972,4095
973,4095
974,4095
975,4095
976,4095
977,4095
978,4095
979,4095
980,4095
981,4095
982,4095
983,4095
984,4095
985,4047
986,3979
987,3915
988,3847
989,3789
990,3719
991,3655
992,3596
993,3526
994,3469
995,3411
996,3347
997,2679
998,2722
999,2614
1000,2586
1001,2548
1002,2521
1003,2493
1004,2474
1005,2446
1006,2416
1007,2394
1008,2342
1009,3194
1010,3327
1011,3471
1012,3632
1013,3811
1014,4095
1015,4095
1016,4095
1017,4095
1018,4095
1019,4095
1020,4095
1021,4095
1022,4095
1023,4095
1024,4095
1025,4095
1026,4095
1027,4095
1028,4095
1029,4095
1030,4095
1031,4095
1032,4095
1033,4095
1034,4095
1035,4095
1036,4095
1037,4095
1038,4095
1039,4095
1040,4095
1041,3671
1042,3606
1043,3543
1044,3484
1045,3349
1046,3363
1047,3312
1048,3259
1049,3203
1050,3157
1051,3111
1052,2726
1053,2688
1054,2654
1055,2624
1056,2598
1057,2559
1058,2532
1059,2499
1060,2475
1061,2448
1062,2425
1063,2637
1064,2706
1065,2789
1066,2874
1067,2963
1068,3063
1069,3181
1070,3312
1071,3458
1072,3630
1073,3792
1074,4095
1075,4095
1076,4095
1077,4095
1078,4095
1079,4095
1080,4095
1081,4095
1082,4095
1083,4095
1084,4095
1085,4095
1086,4095
1087,4095
1088,4095
1089,4095
1090,4095
1091,4095
1092,4095
1093,4095
1094,4095
1095,4095
1096,4095
1097,4042
1098,3973
1099,3901
1100,3846
1101,3774
1102,3711
1103,3758
1104,3583
1105,3519
1106,3013
1107,2973
1108,2930
1109,2886
1110,2875
1111,2813
1112,2777
1113,2742
1114,2704
1115,2675
1116,2640
1117,2448
1118,2467
1119,2493
1120,2535
1121,2585
1122,2640
1123,2704
1124,2769
1125,2855
1126,2942
1127,3037
1128,4095
1129,4095
1130,4095
1131,4095
1132,4095
1133,4095
1134,4095
1135,4095
1136,4095
1137,4095
1138,4095
1139,4095
1140,4095
1141,4095
1142,4095
1143,4095
1144,4095
1145,4095
1146,4095
1147,4095
1148,4095
1149,4095
1150,4095
1151,4095
1152,4095
1153,4095
1154,4095
1155,4095
1156,4095
1157,4095
1158,4095
1159,4095
1160,3395
1161,3343
1162,3294
1163,3236
1164,3186
1165,3136
1166,3077
1167,3043
1168,3003
1169,2957
1170,2919
1171,2463
1172,2419
1173,2409
1174,2390
1175,2372
1176,2370
1177,2374
1178,2386
1179,2415
1180,2451
1181,2495
1182,3613
1183,3755
1184,3934
1185,4095
1186,4095
1187,4095
1188,4095
1189,4095
1190,4095
1191,4095
1192,4095
1193,4095
1194,4095
1195,4095
1196,4095
1197,4095
1198,4095
1199,4095
1200,4095
1201,4095
1202,4095
1203,4095
1204,4095
1205,4095
1206,4095
1207,4095
1208,4095
1209,4095
1210,4095
1211,4095
1212,4095
1213,4095
1214,3665
1215,3602
1216,3535
1217,3479
1218,3414
1219,3361
1220,3309
1221,3254
1222,3200
1223,3155
1224,3057
1225,2640
1226,2611
1227,2583
1228,2545
1229,2516
1230,2494
1231,2459
1232,2433
1233,2416
1234,2387
1235,2368
1236,2795
1237,2864
1238,2956
1239,3055
1240,3242
1241,3285
1242,3417
1243,3574
1244,3740
1245,3921
1246,4095
1247,4095
1248,4095
1249,4095
1250,4095
1251,4095
1252,4095
1253,4095
1254,4095
1255,4095
1256,4095
1257,4095
1258,4095
1259,4095
1260,4095
1261,4095
1262,4095
1263,4095
1264,4095
1265,4095
1266,4095
1267,4095
1268,3925
1269,3858
1270,3799
1271,3728
1272,3670
1273,3602
1274,3536
1275,3481
1276,3421
1277,3359
1278,3309
1279,2857
1280,2822
1281,2783
1282,2752
1283,2717
1284,2681
1285,2652
1286,2617
1287,2586
1288,2553
1289,2519
1290,2371
1291,2404
1292,2446
1293,2496
1294,2551
1295,2612
1296,2686
1297,2758
1298,2834
1299,2926
1300,3011
1301,4095
1302,4095
1303,4095
1304,4095
1305,4095
1306,4095
1307,4095
1308,4095
1309,4095
1310,4095
1311,4095
1312,4095
1313,4095
1314,4095
1315,4095
1316,4095
1317,4095
1318,4095
1319,4095
1320,4095
1321,4095
1322,4095
1323,4095
1324,4095
1325,4095
1326,4095
1327,4053
1328,3991
1329,3919
1330,3855
1331,3797
1332,3724
1333,3141
1334,3093
1335,3045
1336,3001
1337,2958
1338,2917
1339,2876
1340,2842
1341,2805
1342,2768
1343,2736
1344,2384
1345,2368
1346,2351
1347,2346
1348,2346
1349,2359
1350,2381
1351,2412
1352,2448
1353,2495
1354,2545
1355,3747
1356,3928
1357,4095
1358,4095
1359,4095
1360,4095
1361,4095
1362,4095
1363,4095
1364,4095
1365,4095
1366,4095
1367,4095
1368,4095
1369,4095
1370,4095
1371,4095
1372,4095
1373,4095
1374,4095
1375,4095
1376,4095
1377,4095
1378,4095
1379,4095
1380,4095
1381,4095
1382,4095
1383,4095
1384,4095
1385,4095
1386,4095
1387,3505
1388,3456
1389,3329
1390,3337
1391,3281
1392,3230
1393,3183
1394,3121
1395,3089
1396,3038
1397,2992
1398,2647
1399,2610
1400,2585
1401,2544
1402,2514
1403,2495
1404,2464
1405,2445
1406,2419
1407,2409
1408,2409
1409,3008
1410,3110
1411,3216
1412,3343
1413,3489
1414,3648
1415,3825
1416,4021
1417,4095
1418,4095
1419,4095
1420,4095
1421,4095
1422,4095
1423,4095
1424,4095
1425,4095
1426,4095
1427,4095
1428,4095
1429,4095
1430,4095
1431,4095
1432,4095
1433,4095
1434,4095
1435,4095
1436,4095
1437,4095
1438,4095
1439,4095
1440,4095
1441,4033
1442,3957
1443,3911
1444,3837
1445,3773
1446,3709
1447,3639
1448,3571
1449,3515
1450,3461
1451,3397
1452,2858
1453,2818
1454,2779
1455,2749
1456,2711
1457,2676
1458,2646
1459,2614
1460,2582
1461,2550
1462,2518
1463,2525
1464,2576
1465,2634
1466,2695
1467,2766
1468,2835
1469,2926
1470,3008
1471,3120
1472,3243
1473,3359
1474,4095
1475,4095
1476,4095
1477,4095
1478,4095
1479,4095
1480,4095
1481,4095
1482,4095
1483,4095
1484,4095
1485,4095
1486,4095
1487,4095
1488,4095
1489,4095
1490,4095
1491,4095
1492,4095
1493,4095
1494,4095
1495,4095
1496,4095
1497,4095
1498,4095
1499,4095
1500,4095
1501,4075
1502,4013
1503,3941
1504,3888
1505,3820
1506,3142
1507,3087
1508,3040
1509,2995
1510,2958
1511,2915
1512,2880
1513,2839
1514,2804
1515,2769
1516,2731
1517,2432
1518,2423
1519,2427
1520,2432
1521,2450
1522,2482
1523,2512
1524,2572
1525,2625
1526,2688
1527,2757
1528,4095
1529,4095
1530,4095
1531,4095
1532,4095
1533,4095
1534,4095
1535,4095
1536,4095
1537,4095
1538,4095
1539,4095
1540,4095
1541,4095
1542,4095
1543,4095
1544,4095
1545,4095
1546,4095
1547,4095
1548,4095
1549,4095
1550,4095
1551,4095
1552,4095
1553,4095
1554,4095
1555,4095
1556,4095
1557,4095
1558,4095
1559,4095
1560,3825
1561,3757
1562,3662
1563,3632
1564,3570
1565,3504
1566,3442
1567,3381
1568,3334
1569,3274
1570,3226
1571,2789
1572,2752
1573,2709
1574,2686
1575,2633
1576,2619
1577,2594
1578,2576
1579,2575
1580,2578
1581,2589
1582,3302
1583,3434
1584,3575
1585,3734
1586,3918
1587,4095
1588,4095
1589,4095
1590,4095
1591,4095
1592,4095
1593,4095
1594,4095
1595,4095
1596,4095
1597,4095
1598,4095
1599,4095
1600,4095
1601,4095
1602,4095
1603,4095
1604,4095
1605,4095
1606,4095
1607,4095
1608,4095
1609,4095
1610,4095
1611,4095
1612,4095
1613,4095
1614,4095
1615,4095
1616,4095
1617,4095
1618,4048
1619,3980
1620,3924
1621,3854
1622,3789
1623,3712
1624,3655
1625,3087
1626,3035
1627,2993
1628,2953
1629,2911
1630,2867
1631,2833
1632,2800
1633,2757
1634,2723
1635,2689
1636,2804
1637,2875
1638,2957
1639,3051
1640,3152
1641,3265
1642,3399
1643,3547
1644,3727
1645,3922
1646,4095
1647,4095
1648,4095
1649,4095
1650,4095
1651,4095
1652,4095
1653,4095
1654,4095
1655,4095
1656,4095
1657,4095
1658,4095
1659,4095
1660,4095
1661,4095
1662,4095
1663,4095
1664,4095
1665,4095
1666,4095
1667,4095
1668,4095
1669,4095
1670,4095
1671,4095
1672,4049
1673,4095
1674,4075
1675,4013
1676,3952
1677,3887
1678,3822
1679,3088
1680,3035
1681,2995
1682,2947
1683,2909
1684,2871
1685,2841
1686,2801
1687,2763
1688,2731
1689,2692
1690,2416
1691,2425
1692,2434
1693,2465
1694,2501
1695,2545
1696,2602
1697,2657
1698,2718
1699,2795
1700,2876
1701,4095
1702,4095
1703,4095
1704,4095
1705,4095
1706,4095
1707,4095
1708,4095
1709,4095
1710,4095
1711,4095
1712,4095
1713,4095
1714,4095
1715,4095
1716,4095
1717,4095
1718,4095
1719,4095
1720,4095
1721,4095
1722,4095
1723,4095
1724,4095
1725,4095
1726,4095
1727,4095
1728,4095
1729,4095
1730,4095
1731,4095
1732,4095
1733,3393
1734,3339
1735,3280
1736,3238
1737,3183
1738,3135
1739,3086
1740,3042
1741,2994
1742,2949
1743,2915
1744,2539
1745,2512
1746,2480
1747,2453
1748,2448
1749,2416
1750,2406
1751,2414
1752,2427
1753,2448
1754,2481
1755,3449
1756,3603
1757,3779
1758,3978
1759,4095
1760,4095
1761,4095
1762,4095
1763,4095
1764,4095
1765,4095
1766,4095
1767,4095
1768,4095
1769,4095
1770,4095
1771,4095
1772,4095
1773,4095
1774,4095
1775,4095
1776,4095
1777,4095
1778,4095
1779,4095
1780,4095
1781,4095
1782,4095
1783,4095
1784,4095
1785,4095
1786,4095
1787,4095
1788,3953
1789,3907
1790,3825
1791,3760
1792,3685
1793,3629
1794,3558
1795,3498
1796,3440
1797,3378
1798,2828
1799,2791
1800,2752
1801,2722
1802,2687
1803,2650
1804,2621
1805,2586
1806,2551
1807,2527
1808,2499
1809,2727
1810,2795
1811,2859
1812,2931
1813,3009
1814,3102
1815,3198
1816,3329
1817,3434
1818,3567
1819,3715
1820,4095
1821,4095
1822,4095
1823,4095
1824,4095
1825,4095
1826,4095
1827,4095
1828,4095
1829,4095
1830,4095
1831,4095
1832,4095
1833,4095
1834,4095
1835,4095
1836,4095
1837,4095
1838,4095
1839,4095
1840,4095
1841,4095
1842,4095
1843,4095
1844,4095
1845,4095
1846,4095
1847,4095
1848,4091
1849,4048
1850,3981
1851,3909
1852,3223
1853,3169
1854,3125
1855,3081
1856,3026
1857,3022
1858,2953
1859,2906
1860,2871
1861,2832
1862,2793
1863,2592
1864,2613
1865,2645
1866,2685
1867,2732
1868,2789
1869,2855
1870,2931
1871,3019
1872,3121
1873,3223
1874,4095
1875,4095
1876,4095
1877,4095
1878,4095
1879,4095
1880,4095
1881,4095
1882,4095
1883,4095
1884,4095
1885,4095
1886,4095
1887,4095
1888,4095
1889,4095
1890,4095
1891,4095
1892,4095
1893,4095
1894,4095
1895,4095
1896,4095
1897,4095
1898,4095
1899,4095
1900,4095
1901,4095
1902,4095
1903,4095
1904,4095
1905,4095
1906,4095
1907,3454
1908,3391
1909,3340
1910,3280
1911,3232
1912,3183
1913,3134
1914,3087
1915,3041
1916,2992
1917,2577
1918,2559
1919,2512
1920,2490
1921,2476
1922,2465
1923,2471
1924,2482
1925,2504
1926,2538
1927,2590
1928,3524
1929,3695
1930,3871
1931,4054
1932,4095
1933,4095
1934,4095
1935,4095
1936,4095
1937,4095
1938,4095
1939,4095
1940,4095
1941,4095
1942,4095
1943,4095
1944,4095
1945,4095
1946,4095
1947,4095
1948,4095
1949,4095
1950,4095
1951,4095
1952,4095
1953,4095
1954,4095
1955,4095
1956,4095
1957,4095
1958,4095
1959,4095
1960,4095
1961,3546
1962,3485
1963,3427
1964,3371
1965,3313
1966,3257
1967,3215
1968,3163
1969,3117
1970,3061
1971,2629
1972,2598
1973,2566
1974,2534
1975,2509
1976,2473
1977,2450
1978,2423
1979,2403
1980,2379
1981,2355
1982,2649
1983,2725
1984,2805
1985,2896
1986,2996
1987,3117
1988,3233
1989,3362
1990,3514
1991,3693
1992,3879
1993,4095
1994,4095
1995,4095
1996,4095
1997,4095
1998,4095
1999,4095
2000,4095
2001,4095
2002,4095
2003,4095
2004,4095
2005,4095
2006,4095
2007,4095
2008,4095
2009,4095
2010,4095
2011,4095
2012,4095
2013,4095
2014,4095
2015,4095
2016,4043
2017,3979
2018,3920
2019,3773
2020,3789
2021,3714
2022,3658
2023,3583
2024,3521
2025,3465
2026,2938
2027,2896
2028,2855
2029,2817
2030,2786
2031,2743
2032,2711
2033,2681
2034,2646
2035,2617
2036,2373
2037,2423
2038,2445
2039,2471
2040,2512
2041,2550
2042,2602
2043,2646
2044,2704
2045,2765
2046,2833
2047,4095
2048,4095
2049,4095
2050,4095
2051,4095
2052,4095
2053,4095
2054,4095
2055,4095
2056,4095
2057,4095
2058,4095
2059,4095
2060,4095
2061,4095
2062,4095
2063,4095
2064,4095
2065,4095
2066,4095
2067,4095
2068,4095
2069,4095
2070,4095
2071,4095
2072,4095
2073,4095
2074,4095
2075,4095
2076,4095
2077,4095
2078,4095
2079,4054
2080,3344
2081,3290
2082,3234
2083,3175
2084,3138
2085,3098
2086,3041
2087,2999
2088,2956
2089,2917
2090,2567
2091,2531
2092,2507
2093,2483
2094,2477
2095,2474
2096,2480
2097,2481
2098,2517
2099,2548
2100,2603
2101,3645
2102,3818
2103,4017
2104,4095
2105,4095
2106,4095
2107,4095
2108,4095
2109,4095
2110,4095
2111,4095
2112,4095
2113,4095
2114,4095
2115,4095
2116,4095
2117,4095
2118,4095
2119,4095
2120,4095
2121,4095
2122,4095
2123,4095
2124,4095
2125,4095
2126,4095
2127,4095
2128,4095
2129,4095
2130,4095
2131,4095
2132,4095
2133,4095
2134,3801
2135,3726
2136,3661
2137,3606
2138,3525
2139,3471
2140,3415
2141,3356
2142,3299
2143,3250
2144,3194
2145,2767
2146,2737
2147,2695
2148,2660
2149,2631
2150,2602
2151,2571
2152,2534
2153,2507
2154,2481
2155,2803
2156,2879
2157,2959
2158,3057
2159,3156
2160,3270
2161,3397
2162,3536
2163,3695
2164,3874
2165,4053
2166,4095
2167,4095
2168,4095
2169,4095
2170,4095
2171,4095
2172,4095
2173,4095
2174,4095
2175,4095
2176,4095
2177,4095
2178,4095
2179,4095
2180,4095
2181,4095
2182,4095
2183,4095
2184,4095
2185,4095
2186,4095
2187,4095
2188,4095
2189,4095
2190,4095
2191,4061
2192,3991
2193,3920
2194,3853
2195,3795
2196,3728
2197,3662
2198,3600
2199,3087
2200,3033
2201,2995
2202,2951
2203,2909
2204,2874
2205,2832
2206,2795
2207,2765
2208,2729
2209,2362
2210,2384
2211,2423
2212,2465
2213,2521
2214,2579
2215,2645
2216,2710
2217,2795
2218,2877
2219,2965
2220,4095
2221,4095
2222,4095
2223,4095
2224,4095
2225,4095
2226,4095
2227,4095
2228,4095
2229,4095
2230,4095
2231,4095
2232,4095
2233,4095
2234,4095
2235,4095
2236,4095
2237,4095
2238,4095
2239,4095
2240,4095
2241,4095
2242,4095
2243,4095
2244,4095
2245,4095
2246,4095
2247,4095
2248,4095
2249,4095
2250,4095
2251,4095
2252,4095
2253,3600
2254,3533
2255,3480
2256,3419
2257,3366
2258,3312
2259,3248
2260,3203
2261,3152
2262,3108
2263,3058
2264,2679
2265,2651
2266,2617
2267,2598
2268,2585
2269,2578
2270,2585
2271,2606
2272,2630
2273,2666
2274,3869
2275,4067
2276,4095
2277,4095
2278,4095
2279,4095
2280,4095
2281,4095
2282,4095
2283,4095
2284,4095
2285,4095
2286,4095
2287,4095
2288,4095
2289,4095
2290,4095
2291,4095
2292,4095
2293,4095
2294,4095
2295,4095
2296,4095
2297,4095
2298,4095
2299,4095
2300,4095
2301,4095
2302,4095
2303,4095
2304,4095
2305,4095
2306,4095
2307,4007
2308,3937
2309,3878
2310,3808
2311,3744
2312,3684
2313,3639
2314,3550
2315,3494
2316,3425
2317,3374
2318,2805
2319,2768
2320,2736
2321,2697
2322,2668
2323,2630
2324,2599
2325,2573
2326,2538
2327,2506
2328,2795
2329,2866
2330,2947
2331,3034
2332,3136
2333,3248
2334,3374
2335,3515
2336,3674
2337,3838
2338,4032
2339,4095
2340,4095
2341,4095
2342,4095
2343,4095
2344,4095
2345,4095
2346,4095
2347,4095
2348,4095
2349,4095
2350,4095
2351,4095
2352,4095
2353,4095
2354,4095
2355,4095
2356,4095
2357,4095
2358,4095
2359,4095
2360,4095
2361,4095
2362,4095
2363,4095
2364,4095
2365,4095
2366,4055
2367,3991
2368,3923
2369,3856
2370,3791
2371,3731
2372,3084
2373,3033
2374,2992
2375,2953
2376,2909
2377,2869
2378,2832
2379,2800
2380,2759
2381,2722
2382,2688
2383,2496
2384,2518
2385,2547
2386,2594
2387,2637
2388,2698
2389,2761
2390,2832
2391,2907
2392,2993
2393,4095
2394,4095
2395,4095
2396,4095
2397,4095
2398,4095
2399,4095
2400,4095
2401,4095
2402,4095
2403,4095
2404,4095
2405,4095
2406,4095
2407,4095
2408,4095
2409,4095
2410,4095
2411,4095
2412,4095
2413,4095
2414,4095
2415,4095
2416,4095
2417,4095
2418,4095
2419,4095
2420,4095
2421,4095
2422,4095
2423,4095
2424,4095
2425,4095
2426,3406
2427,3344
2428,3283
2429,3243
2430,3185
2431,3138
2432,3090
2433,3042
2434,3002
2435,2960
2436,2918
2437,2590
2438,2558
2439,2527
2440,2498
2441,2480
2442,2480
2443,2475
2444,2487
2445,2524
2446,2533
2447,3568
2448,3742
2449,3932
2450,4095
2451,4095
2452,4095
2453,4095
2454,4095
2455,4095
2456,4095
2457,4095
2458,4095
2459,4095
2460,4095
2461,4095
2462,4095
2463,4095
2464,4095
2465,4095
2466,4095
2467,4095
2468,4095
2469,4095
2470,4095
2471,4095
2472,4095
2473,4095
2474,4095
2475,4095
2476,4095
2477,4095
2478,4095
2479,4095
2480,4095
2481,4095
2482,3987
2483,3927
2484,3859
2485,3795
2486,3731
2487,3679
2488,3600
2489,3539
2490,3476
2491,2887
2492,2850
2493,2818
2494,2773
2495,2738
2496,2706
2497,2672
2498,2642
2499,2611
2500,2579
2501,2549
2502,2800
2503,2864
2504,2938
2505,3013
2506,3110
2507,3211
2508,3319
2509,3441
2510,3577
2511,3734
2512,4095
2513,4095
2514,4095
2515,4095
2516,4095
2517,4095
2518,4095
2519,4095
2520,4095
2521,4095
2522,4095
2523,4095
2524,4095
2525,4095
2526,4095
2527,4095
2528,4095
2529,4095
2530,4095
2531,4095
2532,4095
2533,4095
2534,4095
2535,4095
2536,4095
2537,4095
2538,4095
2539,4095
2540,4095
2541,4095
2542,4095
2543,4095
2544,4095
2545,3459
2546,3403
2547,3345
2548,3287
2549,3237
2550,3191
2551,3137
2552,3090
2553,3041
2554,3002
2555,2960
2556,2758
2557,2767
2558,2794
2559,2831
2560,2877
2561,2928
2562,2997
2563,3068
2564,3153
2565,3246
2566,4095
2567,4095
2568,4095
2569,4095
2570,4095
2571,4095
2572,4095
2573,4095
2574,4095
2575,4095
2576,4095
2577,4095
2578,4095
2579,4095
2580,4095
2581,4095
2582,4095
2583,4095
2584,4095
2585,4095
2586,4095
2587,4095
2588,4095
2589,4095
2590,4095
2591,4095
2592,4095
2593,4095
2594,4095
2595,4095
2596,4095
2597,4095
2598,4095
2599,4095
2600,4095
2601,4095
2602,4095
2603,4095
2604,4095
2605,4095
2606,4095
2607,4055
2608,3999
2609,3931
2610,3305
2611,3248
2612,3199
2613,3149
2614,3111
2615,3088
2616,3071
2617,3080
2618,3099
2619,3129
2620,3174
2621,4095
2622,4095
2623,4095
2624,4095
2625,4095
2626,4095
2627,4095
2628,4095
2629,4095
2630,4095
2631,4095
2632,4095
2633,4095
2634,4095
2635,4095
2636,4095
2637,4095
2638,4095
2639,4095
2640,4095
2641,4095
2642,4095
2643,4095
2644,4095
2645,4095
2646,4095
2647,4095
2648,4095
2649,4095
2650,4095
2651,4095
2652,4095
2653,4095
2654,4095
2655,4095
2656,4095
2657,4095
2658,4095
2659,4095
2660,4095
2661,4095
2662,4095
2663,4095
2664,4095
2665,4095
2666,4095
2667,4095
2668,4095
2669,4095
2670,4095
2671,4095
2672,4095
2673,4095
2674,4095
2675,4095
2676,4095
2677,4095
2678,4095
2679,4095
2680,4095
2681,4095
2682,4095
2683,4095
2684,4095
2685,4095
2686,4095
2687,4095
2688,4095
2689,4095
2690,4095
2691,4095
2692,4095
2693,4095
2694,4095
2695,4095
2696,4095
2697,4095
2698,4095
2699,4095
2700,4095
2701,4095
2702,4095
2703,4095
2704,4095
2705,4095
2706,4095
2707,4095
2708,4095
2709,4095
2710,4095
2711,4095
2712,4095
2713,4095
2714,4095
2715,4095
2716,4095
2717,4095
2718,4095
2719,4095
2720,4095
2721,4095
2722,4095
2723,4095
2724,4095
2725,4095
2726,4095
2727,4095
2728,4095
2729,4095
2730,4095
2731,4095
2732,4095
2733,4095
2734,4095
2735,4095
2736,4095
2737,4095
2738,4095
2739,4095
2740,4095
2741,4095
2742,4095
2743,4095
2744,4095
2745,4095
2746,4095
2747,4095
2748,4095
2749,4095
2750,4095
2751,4095
2752,4095
2753,4095
2754,4095
2755,4095
2756,4095
2757,4095
2758,4095
2759,4095
2760,4095
2761,4095
2762,4095
2763,4095
2764,4095
2765,4095
2766,4095
2767,4095
2768,4095
2769,4095
2770,4095
2771,4095
2772,4095
2773,4095
2774,4095
2775,4095
2776,4095
2777,4095
2778,4095
2779,4095
2780,4095
2781,4095
2782,4095
2783,4095
2784,4095
2785,4095
2786,4095
2787,4095
2788,4095
2789,4095
2790,4095
2791,4095
2792,4095
2793,4095
2794,4095
2795,4095
2796,4095
2797,4095
2798,4095
2799,4095
2800,4095
2801,4095
2802,4095
2803,4095
2804,4095
2805,4095
2806,4095
2807,4095
2808,4095
2809,4095
2810,4095
2811,4095
2812,4095
2813,4095
2814,4095
2815,4095
2816,4095
2817,4095
2818,4095
2819,4095
2820,4095
2821,4095
2822,4095
2823,4095
2824,4095
2825,4095
2826,4095
2827,4095
2828,4095
2829,4095
2830,4095
2831,4095
2832,4095
2833,4095
2834,4095
2835,4095
2836,4095
2837,4095
2838,4095
2839,4095
2840,4095
2841,4095
2842,4095
2843,4095
2844,4095
2845,4095
2846,4095
2847,4095
2848,4095
2849,4095
2850,4095
2851,4095
2852,4095
2853,4095
2854,4095
2855,4095
2856,4095
2857,4095
2858,4095
2859,4095
2860,4095
2861,4095
2862,4095
2863,4095
2864,4095
2865,4095
2866,4095
2867,4095
2868,4095
2869,4095
2870,4095
2871,4095
2872,4095
2873,4095
2874,4095
2875,4095
2876,4095
2877,4095
2878,4095
2879,4095
2880,4095
2881,4095
2882,4095
2883,4095
2884,4095
2885,4095
2886,4095
2887,4095
2888,4095
2889,4095
2890,4095
2891,4095
2892,4095
2893,4095
2894,4095
2895,4095
2896,4095
2897,4095
2898,4095
2899,4095
2900,4095
2901,4095
2902,4095
2903,4095
2904,4095
2905,4095
2906,4095
2907,4095
2908,4095
2909,4095
2910,4095
2911,4095
2912,4095
2913,4095
2914,4095
2915,4095
2916,4095
2917,4095
2918,4095
2919,4095
2920,4095
2921,4095
2922,4095
2923,4095
2924,4095
2925,4095
2926,4095
2927,4095
2928,4095
2929,4095
2930,4095
2931,4095
2932,4095
2933,4095
2934,4095
2935,4095
2936,4095
2937,4095
2938,4095
2939,4095
2940,4095
2941,4095
2942,4095
2943,4095
2944,4095
2945,4095
2946,4095
2947,4095
2948,4095
2949,4095
2950,4095
2951,4095
2952,4095
2953,4095
2954,4095
2955,4095
2956,4095
2957,4095
2958,4095
2959,4095
2960,4095
2961,4095
2962,4095
2963,4095
2964,4095
2965,4095
2966,4095
2967,4095
2968,4095
2969,4095
2970,4095
2971,4095
2972,4095
2973,4095
2974,4095
2975,4095
2976,4095
2977,4095
2978,4095
2979,4095
2980,4095
2981,4095
2982,4095
2983,4095
2984,4095
2985,4095
2986,4095
2987,4095
2988,4095
2989,4095
2990,4095
2991,4095
2992,4095
2993,4095
2994,4095
2995,4095
2996,4095
2997,4095
2998,4095
2999,4095
3000,4095
3001,4095
3002,4095
3003,4095
3004,4095
3005,4095
3006,4095
3007,4095
3008,4095
3009,4095
3010,4095
3011,4095
3012,4095
3013,4095
3014,4095
3015,4095
3016,4095
3017,4095
3018,4095
3019,4095
3020,4095
3021,3827
3022,3901
3023,3981
3024,4081
3025,4095
3026,4095
3027,4095
3028,4095
3029,4095
3030,4095
3031,4095
3032,4095
3033,4095
3034,4095
3035,4095
3036,4095
3037,4095
3038,4095
3039,4095
3040,4095
3041,4095
3042,4095
3043,4095
3044,4095
3045,4095
3046,4095
3047,4095
3048,4095
3049,4095
3050,4095
3051,4095
3052,4095
3053,4095
3054,4095
3055,4095
3056,4095
3057,4095
3058,4095
3059,4095
3060,4095
3061,4095
3062,4095
3063,4095
3064,4095
3065,4095
3066,4095
3067,4095
3068,4095
3069,4095
3070,4095
3071,4095
3072,4095
3073,4095
3074,4095
3075,2990
3076,2959
3077,2931
3078,2914
3079,2903
3080,2902
3081,2907
3082,2917
3083,2930
3084,2951
3085,2982
3086,3732
3087,3902
3088,4095
3089,4095
3090,4095
3091,4095
3092,4095
3093,4095
3094,4095
3095,4095
3096,4095
3097,4095
3098,4095
3099,4095
3100,4095
3101,4095
3102,4095
3103,4095
3104,4095
3105,4095
3106,4095
3107,4095
3108,4095
3109,4095
3110,4095
3111,4095
3112,4095
3113,4095
3114,4095
3115,4095
3116,4095
3117,4095
3118,3197
3119,3151
3120,3099
3121,3054
3122,3008
3123,2963
3124,2927
3125,2884
3126,2849
3127,2814
3128,2777
3129,2301
3130,2283
3131,2265
3132,2240
3133,2225
3134,2209
3135,2194
3136,2175
3137,2161
3138,2146
3139,2121
3140,1751
3141,1727
3142,1691
3143,1673
3144,1655
3145,1634
3146,1630
3147,1616
3148,1619
3149,1634
3150,1665
3151,3078
3152,3214
3153,3349
3154,3473
3155,3595
3156,3709
3157,3814
3158,3904
3159,3984
3160,4055
3161,3337
3162,3323
3163,3300
3164,3278
3165,3255
3166,3233
3167,3296
3168,3184
3169,3147
3170,3120
3171,3090
3172,2576
3173,2547
3174,2543
3175,2521
3176,2501
3177,2486
3178,2471
3179,2451
3180,2438
3181,2417
3182,2400
3183,2243
3184,2237
3185,2218
3186,2206
3187,2195
3188,2185
3189,2173
3190,2162
3191,2147
3192,2138
3193,2128
3194,1909
3195,1858
3196,1808
3197,1744
3198,1746
3199,1625
3200,1563
3201,1495
3202,1434
3203,1362
3204,1307
3205,1296
3206,1443
3207,1613
3208,1785
3209,1939
3210,2085
3211,2218
3212,2330
3213,2447
3214,2549
3215,2640
3216,3521
3217,3541
3218,3554
3219,3568
3220,3566
3221,3565
3222,3553
3223,3537
3224,3519
3225,3494
3226,3056
3227,3027
3228,2992
3229,2960
3230,2928
3231,2902
3232,2871
3233,2845
3234,2842
3235,2789
3236,2754
3237,2469
3238,2445
3239,2422
3240,2481
3241,2381
3242,2357
3243,2336
3244,2316
3245,2298
3246,2281
3247,2262
3248,2096
3249,2092
3250,2079
3251,2066
3252,2042
3253,2013
3254,1985
3255,1952
3256,1915
3257,1870
3258,1829
3259,1307
3260,1280
3261,1248
3262,1232
3263,1274
3264,1255
3265,1321
3266,1406
3267,1533
3268,1680
3269,1865
3270,3422
3271,3509
3272,3591
3273,3652
3274,3709
3275,3759
3276,3798
3277,3828
3278,3845
3279,3862
3280,3826
3281,3776
3282,3713
3283,3654
3284,3583
3285,3523
3286,3466
3287,3409
3288,3349
3289,3306
3290,3249
3291,2851
3292,2818
3293,2777
3294,2741
3295,2707
3296,2675
3297,2642
3298,2613
3299,2579
3300,2546
3301,2517
3302,2256
3303,2237
3304,2219
3305,2198
3306,2187
3307,2171
3308,2158
3309,2138
3310,2128
3311,2115
3312,2106
3313,1792
3314,1750
3315,1711
3316,1680
3317,1651
3318,1627
3319,1603
3320,1584
3321,1575
3322,1560
3323,1562
3324,3742
3325,3969
3326,4095
3327,4095
3328,4095
3329,4095
3330,4095
3331,4095
3332,4095
3333,4095
3334,4095
3335,4095
3336,4095
3337,4095
3338,4095
3339,4095
3340,4095
3341,4095
3342,4095
3343,4095
3344,4095
3345,2862
3346,2834
3347,2787
3348,2773
3349,2751
3350,2775
3351,2694
3352,2688
3353,2644
3354,2624
3355,2596
3356,2578
3357,2605
3358,2515
3359,2490
3360,2493
3361,2437
3362,2411
3363,2383
3364,2361
3365,2340
3366,2317
3367,2173
3368,2160
3369,2147
3370,2135
3371,2127
3372,2123
3373,2116
3374,2110
3375,2101
3376,2103
3377,2112
3378,1100
3379,1168
3380,1281
3381,1417
3382,1587
3383,1773
3384,1948
3385,2119
3386,2263
3387,2401
3388,2525
3389,4095
3390,4095
3391,4095
3392,4095
3393,4095
3394,4095
3395,4095
3396,4095
3397,4095
3398,4095
3399,4095
3400,4063
3401,3990
3402,3921
3403,3861
3404,3792
3405,3726
3406,3661
3407,3597
3408,3575
3409,3471
3410,2662
3411,2636
3412,2605
3413,2575
3414,2542
3415,2507
3416,2486
3417,2457
3418,2429
3419,2411
3420,2384
3421,2174
3422,2160
3423,2146
3424,2131
3425,2122
3426,2108
3427,2096
3428,2077
3429,2059
3430,2032
3431,2010
3432,2141
3433,2157
3434,2179
3435,2205
3436,2237
3437,2278
3438,2339
3439,2416
3440,2521
3441,2661
3442,2827
3443,3767
3444,3911
3445,4049
3446,4095
3447,4095
3448,4095
3449,4095
3450,4095
3451,4095
3452,4095
3453,4095
3454,4095
3455,4076
3456,4019
3457,3948
3458,3886
3459,3814
3460,3744
3461,3678
3462,3612
3463,3536
3464,3338
3465,3281
3466,3234
3467,3183
3468,3133
3469,3089
3470,3039
3471,2998
3472,2957
3473,2907
3474,2875
3475,2414
3476,2384
3477,2358
3478,2340
3479,2320
3480,2299
3481,2275
3482,2255
3483,2230
3484,2222
3485,2201
3486,2000
3487,1984
3488,1968
3489,1955
3490,1939
3491,1927
3492,1923
3493,1917
3494,1920
3495,1921
3496,1939
3497,3920
3498,4095
3499,4095
3500,4095
3501,4095
3502,4095
3503,4095
3504,4095
3505,4095
3506,4095
3507,4095
3508,4095
3509,4095
3510,4095
3511,4095
3512,4095
3513,4095
3514,4095
3515,4095
3516,4095
3517,4095
3518,4095
3519,4034
3520,3967
3521,3907
3522,3842
3523,3772
3524,3711
3525,3644
3526,3579
3527,3519
3528,3459
3529,3173
3530,3122
3531,3079
3532,3029
3533,2989
3534,2944
3535,2905
3536,2870
3537,2826
3538,2794
3539,2758
3540,2262
3541,2241
3542,2225
3543,2203
3544,2178
3545,2161
3546,2130
3547,2116
3548,2096
3549,2078
3550,2064
3551,2624
3552,2693
3553,2783
3554,2908
3555,3078
3556,3303
3557,3596
3558,3963
3559,4095
3560,4095
3561,4095
3562,4095
3563,4095
3564,4095
3565,4095
3566,4095
3567,4095
3568,4095
3569,4095
3570,4095
3571,4095
3572,4095
3573,4095
3574,4095
3575,4095
3576,4095
3577,4095
3578,4095
3579,4093
3580,4013
3581,3959
3582,3888
3583,2710
3584,2684
3585,2643
3586,2619
3587,2591
3588,2554
3589,2527
3590,2498
3591,2470
3592,2449
3593,2422
3594,2622
3595,2591
3596,2558
3597,2529
3598,2501
3599,2479
3600,2449
3601,2427
3602,2404
3603,2394
3604,2378
3605,1902
3606,1878
3607,1872
3608,1859
3609,1853
3610,1850
3611,1855
3612,1863
3613,1886
3614,1919
3615,1981
3616,4095
3617,4095
3618,4095
3619,4095
3620,4095
3621,4095
3622,4095
3623,4095
3624,4095
3625,4095
3626,4095
3627,4095
3628,4095
3629,4095
3630,4095
3631,4095
3632,4095
3633,4095
3634,4095
3635,4095
3636,4095
3637,3792
3638,3728
3639,3664
3640,3600
3641,3537
3642,3474
3643,3420
3644,3361
3645,3308
3646,3249
3647,3201
3648,3022
3649,2975
3650,2938
3651,2896
3652,2928
3653,2820
3654,2785
3655,2747
3656,2717
3657,2672
3658,2645
3659,2394
3660,2399
3661,2405
3662,2416
3663,2418
3664,2437
3665,2450
3666,2475
3667,2505
3668,2538
3669,2578
3670,3712
3671,4080
3672,4095
3673,4095
3674,4095
3675,4095
3676,4095
3677,4095
3678,4095
3679,4095
3680,4095
3681,4095
3682,4095
3683,4095
3684,4095
3685,4095
3686,4095
3687,4095
3688,4095
3689,4095
3690,4095
3691,4095
3692,4095
3693,4095
3694,4095
3695,4095
3696,4095
3697,4095
3698,4095
3699,4095
3700,4075
3701,4014
3702,2945
3703,2967
3704,2931
3705,2893
3706,2854
3707,2815
3708,2780
3709,2741
3710,2707
3711,2672
3712,2645
3713,2317
3714,2337
3715,2320
3716,2305
3717,2294
3718,2287
3719,2299
3720,2267
3721,2259
3722,2258
3723,2265
3724,2543
3725,2595
3726,2646
3727,2715
3728,2800
3729,2906
3730,3047
3731,3247
3732,3499
3733,3857
3734,4095
3735,4095
3736,4095
3737,4095
3738,4095
3739,4095
3740,4095
3741,4095
3742,4095
3743,4095
3744,4095
3745,4095
3746,4095
3747,4095
3748,4095
3749,4095
3750,4095
3751,4095
3752,4095
3753,4032
3754,3967
3755,3898
3756,3573
3757,3520
3758,3462
3759,3399
3760,3340
3761,3293
3762,3238
3763,3190
3764,3139
3765,3091
3766,3041
3767,2446
3768,2412
3769,2388
3770,2367
3771,2346
3772,2319
3773,2298
3774,2281
3775,2263
3776,2245
3777,2229
3778,2495
3779,2512
3780,2538
3781,2567
3782,2590
3783,2626
3784,2668
3785,2715
3786,2765
3787,2818
3788,2889
3789,4095
3790,4095
3791,4095
3792,4095
3793,4095
3794,4095
3795,4095
3796,4095
3797,4095
3798,4095
3799,4095
3800,4095
3801,4095
3802,4095
3803,4095
3804,4095
3805,4095
3806,4095
3807,4095
3808,4095
3809,4095
3810,4095
3811,4095
3812,4095
3813,4095
3814,4095
3815,4095
3816,4095
3817,4095
3818,4095
3819,4095
3820,4095
3821,3376
3822,3318
3823,3267
3824,3216
3825,3168
3826,3227
3827,3071
3828,3026
3829,2986
3830,2944
3831,2898
3832,2679
3833,2659
3834,2678
3835,2689
3836,2699
3837,2721
3838,2741
3839,2775
3840,2805
3841,2841
3842,2883
3843,4095
3844,4095
3845,4095
3846,4095
3847,4095
3848,4095
3849,4095
3850,4095
3851,4095
3852,4095
3853,4095
3854,4095
3855,4095
3856,4095
3857,4095
3858,4095
3859,4095
3860,4095
3861,4095
3862,4095
3863,4095
3864,4095
3865,4095
3866,4095
3867,4095
3868,4095
3869,4095
3870,4095
3871,4095
3872,4095
3873,4095
3874,4095
3875,4095
3876,4095
3877,4095
3878,4095
3879,4075
3880,3997
3881,3929
3882,3860
3883,3792
3884,3735
3885,3671
3886,3262
3887,3207
3888,3159
3889,3116
3890,3079
3891,3042
3892,3023
3893,3006
3894,3008
3895,3018
3896,3024
3897,4095
3898,4095
3899,4095
3900,4095
3901,4095
3902,4095
3903,4095
3904,4095
3905,4095
3906,4095
3907,4095
3908,4095
3909,4095
3910,4095
3911,4095
3912,4095
3913,4095
3914,4095
3915,4095
3916,4095
3917,4095
3918,4095
3919,4095
3920,4095
3921,4095
3922,4095
3923,4095
3924,4095
3925,4095
3926,4095
3927,4095
3928,4095
3929,4095
3930,4095
3931,4095
3932,4095
3933,4095
3934,4095
3935,4095
3936,4095
3937,4095
3938,4095
3939,4095
3940,4095
3941,4095
3942,4095
3943,4095
3944,4095
3945,4095
3946,4095
3947,4095
3948,4095
3949,4095
3950,4095
3951,4095
3952,4095
3953,4095
3954,4095
3955,4095
3956,4095
3957,4095
3958,4095
3959,4095
3960,4095
3961,4095
3962,4095
3963,4095
3964,4095
3965,4095
3966,4095
3967,4095
3968,4095
3969,4095
3970,4095
3971,4095
3972,4095
3973,4095
3974,4095
3975,4095
3976,4095
3977,4095
3978,4095
3979,4095
3980,4095
3981,4095
3982,4095
3983,4095
3984,4095
3985,4095
3986,4095
3987,4095
3988,4095
3989,4095
3990,4095
3991,4095
3992,4095
3993,4095
3994,4095
3995,4095
3996,4095
3997,4095
3998,4095
3999,4095
4000,4095
4001,4095
4002,4095
4003,4095
4004,4095
4005,4095
4006,4095
4007,4095
4008,4095
4009,4095
4010,4095
4011,4095
4012,4095
4013,4095
4014,4095
4015,4095
4016,4095
4017,4095
4018,4095
4019,4095
4020,4095
4021,4095
4022,4095
4023,4095
4024,4095
4025,4095
4026,4095
4027,4095
4028,4095
4029,4095
4030,4095
4031,4095
4032,4095
4033,4095
4034,4095
4035,4095
4036,4095
4037,4095
4038,4095
4039,4095
4040,4095
4041,4095
4042,4095
4043,4095
4044,4095
4045,4095
4046,4095
4047,4095
4048,4095
4049,4095
4050,4095
4051,4095
4052,4095
4053,4095
4054,4095
4055,4095
4056,4095
4057,4095
4058,4095
4059,3855
4060,3862
4061,3728
4062,3663
4063,3599
4064,3532
4065,3473
4066,3424
4067,3386
4068,3361
4069,3350
4070,4095
4071,4095
4072,4095
4073,4095
4074,4095
4075,4095
4076,4095
4077,4095
4078,4095
4079,4095
4080,4095
4081,4095
4082,4095
4083,4095
4084,4095
4085,4095
4086,4095
4087,4095
4088,4095
4089,4095
4090,4095
4091,4095
4092,4095
4093,4095
4094,4095
4095,4095
4096,4095
4097,4095
4098,4095
4099,4095
4100,4095
4101,4095
4102,4095
4103,4095
4104,4095
4105,4095
4106,4095
4107,4095
4108,4095
4109,4095
4110,4095
4111,4095
4112,4095
4113,4095
4114,4095
4115,4095
4116,4095
4117,4095
4118,4095
4119,4095
4120,4032
4121,3968
4122,3906
4123,3842
4124,3431
4125,3498
4126,3561
4127,3648
4128,3756
4129,3876
4130,3988
4131,4095
4132,4095
4133,4095
4134,4095
4135,4095
4136,4095
4137,4095
4138,4095
4139,4095
4140,4095
4141,4095
4142,4095
4143,4095
4144,4095
4145,4095
4146,4095
4147,4095
4148,4095
4149,4095
4150,4095
4151,4095
4152,4095
4153,4095
4154,4095
4155,4095
4156,4095
4157,4095
4158,4095
4159,4095
4160,4095
4161,4095
4162,4095
4163,4095
4164,4095
4165,4095
4166,4095
4167,4095
4168,4095
4169,4095
4170,4095
4171,4095
4172,4095
4173,4095
4174,4095
4175,4095
4176,4095
4177,4095
4178,3547
4179,3488
4180,3431
4181,3385
4182,3357
4183,3343
4184,3328
4185,3335
4186,3354
4187,3377
4188,3421
4189,3348
4190,3466
4191,3604
4192,3760
4193,3932
4194,4095
4195,4095
4196,4095
4197,4095
4198,4095
4199,4095
4200,4095
4201,4095
4202,4095
4203,4095
4204,4095
4205,4095
4206,4095
4207,4095
4208,4095
4209,4095
4210,4095
4211,4095
4212,4095
4213,4095
4214,4095
4215,4095
4216,4095
4217,4095
4218,4095
4219,4095
4220,4095
4221,4095
4222,4095
4223,4095
4224,4095
4225,4095
4226,4095
4227,4095
4228,4095
4229,4095
4230,4095
4231,4095
4232,3603
4233,3533
4234,3472
4235,3419
4236,3362
4237,3299
4238,3248
4239,3209
4240,3152
4241,3103
4242,3059
4243,3355
4244,3426
4245,3509
4246,3601
4247,3720
4248,3853
4249,4000
4250,4095
4251,4095
4252,4095
4253,4095
4254,4095
4255,4095
4256,4095
4257,4095
4258,4095
4259,4095
4260,4095
4261,4095
4262,4095
4263,4095
4264,4095
4265,4095
4266,4095
4267,4095
4268,4095
4269,4095
4270,4095
4271,4095
4272,4095
4273,4095
4274,4095
4275,4095
4276,4095
4277,4095
4278,4095
4279,4095
4280,4095
4281,4095
4282,4095
4283,4095
4284,4095
4285,4095
4286,4095
4287,4038
4288,3970
4289,3913
4290,3843
4291,3782
4292,3714
4293,3648
4294,3578
4295,3516
4296,3468
4297,2704
4298,2703
4299,2704
4300,2645
4301,2734
4302,2759
4303,2794
4304,2832
4305,2883
4306,2939
4307,3000
4308,4095
4309,4095
4310,4095
4311,4095
4312,4095
4313,4095
4314,4095
4315,4095
4316,4095
4317,4095
4318,4095
4319,4095
4320,4095
4321,4095
4322,4095
4323,4095
4324,4095
4325,4095
4326,4095
4327,4095
4328,4095
4329,4095
4330,4095
4331,4095
4332,4095
4333,4095
4334,4095
4335,4095
4336,4095
4337,4095
4338,4095
4339,4095
4340,4095
4341,4095
4342,4095
4343,4095
4344,4095
4345,4095
4346,4095
4347,4095
4348,4095
4349,4095
4350,4095
4351,3747
4352,3681
4353,3622
4354,3553
4355,3494
4356,3439
4357,3487
4358,3345
4359,3327
4360,3322
4361,3309
4362,4095
4363,4095
4364,4095
4365,4095
4366,4095
4367,4095
4368,4095
4369,4095
4370,4095
4371,4095
4372,4095
4373,4095
4374,4095
4375,4095
4376,4095
4377,4095
4378,4095
4379,4095
4380,4095
4381,4095
4382,4095
4383,4095
4384,4095
4385,4095
4386,4095
4387,4095
4388,4095
4389,4095
4390,4095
4391,4095
4392,4095
4393,4095
4394,4095
4395,4095
4396,4095
4397,4095
4398,4095
4399,4095
4400,4095
4401,4095
4402,4095
4403,4095
4404,4095
4405,4095
4406,4095
4407,4095
4408,4095
4409,4095
4410,4095
4411,4095
4412,4033
4413,3968
4414,3900
4415,3874
4416,3358
4417,3405
4418,3472
4419,3547
4420,3639
4421,3754
4422,3853
4423,4013
4424,4095
4425,4095
4426,4095
4427,4095
4428,4095
4429,4095
4430,4095
4431,4095
4432,4095
4433,4095
4434,4095
4435,4095
4436,4095
4437,4095
4438,4095
4439,4095
4440,4095
4441,4095
4442,4095
4443,4095
4444,4095
4445,4095
4446,4095
4447,4095
4448,4095
4449,4095
4450,4095
4451,4095
4452,4095
4453,4095
4454,4095
4455,4095
4456,4095
4457,4095
4458,4095
4459,4095
4460,4095
4461,4095
4462,4095
4463,4095
4464,4095
4465,4095
4466,4095
4467,4095
4468,4095
4469,4095
4470,3357
4471,3298
4472,3264
4473,3231
4474,3211
4475,3211
4476,3211
4477,3224
4478,3256
4479,3297
4480,3344
4481,4095
4482,4095
4483,4095
4484,4095
4485,4095
4486,4095
4487,4095
4488,4095
4489,4095
4490,4095
4491,4095
4492,4095
4493,4095
4494,4095
4495,4095
4496,4095
4497,4095
4498,4095
4499,4095
4500,4095
4501,4095
4502,4095
4503,4095
4504,4095
4505,4095
4506,4095
4507,4095
4508,4095
4509,4095
4510,4095
4511,4095
4512,4095
4513,4095
4514,4095
4515,4095
4516,4095
4517,4095
4518,4095
4519,4095
4520,4095
4521,4095
4522,4095
4523,4095
4524,4095
4525,4095
4526,4095
4527,4027
4528,3962
4529,3895
4530,3838
4531,3778
4532,3701
4533,3643
4534,3583
4535,3818
4536,3939
4537,4080
4538,4095
4539,4095
4540,4095
4541,4095
4542,4095
4543,4095
4544,4095
4545,4095
4546,4095
4547,4095
4548,4095
4549,4095
4550,4095
4551,4095
4552,4095
4553,4095
4554,4095
4555,4095
4556,4095
4557,4095
4558,4095
4559,4095
4560,4095
4561,4095
4562,4095
4563,4095
4564,4095
4565,4095
4566,4095
4567,4095
4568,4095
4569,4095
4570,4095
4571,4095
4572,4095
4573,4095
4574,4095
4575,4095
4576,4095
4577,4095
4578,4095
4579,4095
4580,4095
4581,4095
4582,4095
4583,4095
4584,4095
4585,4095
4586,4095
4587,4071
4588,4009
4589,3422
4590,3419
4591,3444
4592,3472
4593,3511
4594,3570
4595,3649
4596,3734
4597,3845
4598,3968
4599,4095
4600,4095
4601,4095
4602,4095
4603,4095
4604,4095
4605,4095
4606,4095
4607,4095
4608,4095
4609,4095
4610,4095
4611,4095
4612,4095
4613,4095
4614,4095
4615,4095
4616,4095
4617,4095
4618,4095
4619,4095
4620,4095
4621,4095
4622,4095
4623,4095
4624,4095
4625,4095
4626,4095
4627,4095
4628,4095
4629,4095
4630,4095
4631,4095
4632,4095
4633,4095
4634,4095
4635,4095
4636,4095
4637,4095
4638,4095
4639,4095
4640,4095
4641,4095
4642,4095
4643,4095
4644,3814
4645,3725
4646,3645
4647,3595
4648,3529
4649,3474
4650,3431
4651,3403
4652,3395
4653,3383
4654,4095
4655,4095
4656,4095
4657,4095
4658,4095
4659,4095
4660,4095
4661,4095
4662,4095
4663,4095
4664,4095
4665,4095
4666,4095
4667,4095
4668,4095
4669,4095
4670,4095
4671,4095
4672,4095
4673,4095
4674,4095
4675,4095
4676,4095
4677,4095
4678,4095
4679,4095
4680,4095
4681,4095
4682,4095
4683,4095
4684,4095
4685,4095
4686,4095
4687,4095
4688,4095
4689,4095
4690,4095
4691,4095
4692,4095
4693,4095
4694,4095
4695,4095
4696,4095
4697,4095
4698,4095
4699,4095
4700,4095
4701,4095
4702,4095
4703,4048
4704,3984
4705,3918
4706,3857
4707,3787
4708,3552
4709,3610
4710,3684
4711,3777
4712,3883
4713,3991
4714,4095
4715,4095
4716,4095
4717,4095
4718,4095
4719,4095
4720,4095
4721,4095
4722,4095
4723,4095
4724,4095
4725,4095
4726,4095
4727,4095
4728,4095
4729,4095
4730,4095
4731,4095
4732,4095
4733,4095
4734,4095
4735,4095
4736,4095
4737,4095
4738,4095
4739,4095
4740,4095
4741,4095
4742,4095
4743,4095
4744,4095
4745,4095
4746,4095
4747,4095
4748,4095
4749,4095
4750,4095
4751,4095
4752,4095
4753,4095
4754,4095
4755,4095
4756,4095
4757,4095
4758,4095
4759,4095
4760,4095
4761,4095
4762,4095
4763,3503
4764,3446
4765,3405
4766,3371
4767,3364
4768,3353
4769,3369
4770,3388
4771,3422
4772,3473
4773,4095
4774,4095
4775,4095
4776,4095
4777,4095
4778,4095
4779,4095
4780,4095
4781,4095
4782,4095
4783,4095
4784,4095
4785,4095
4786,4095
4787,4095
4788,4095
4789,4095
4790,4095
4791,4095
4792,4095
4793,4095
4794,4095
4795,4095
4796,4095
4797,4095
4798,4095
4799,4095
4800,4095
4801,4095
4802,4095
4803,4095
4804,4095
4805,4095
4806,4095
4807,4095
4808,4095
4809,4095
4810,4095
4811,4095
4812,4095
4813,4095
4814,4095
4815,4095
4816,4095
4817,4095
4818,4095
4819,4000
4820,3984
4821,3917
4822,3847
4823,3782
4824,3714
4825,3655
4826,3598
4827,3796
4828,3915
4829,4049
4830,4095
4831,4095
4832,4095
4833,4095
4834,4095
4835,4095
4836,4095
4837,4095
4838,4095
4839,4095
4840,4095
4841,4095
4842,4095
4843,4095
4844,4095
4845,4095
4846,4095
4847,4095
4848,4095
4849,4095
4850,4095
4851,4095
4852,4095
4853,4095
4854,4095
4855,4095
4856,4095
4857,4095
4858,4095
4859,4095
4860,4095
4861,4095
4862,4095
4863,4095
4864,4095
4865,4095
4866,4095
4867,4095
4868,4095
4869,4095
4870,4095
4871,4095
4872,4095
4873,4095
4874,4095
4875,4095
4876,4095
4877,4095
4878,4095
4879,4054
4880,3991
4881,3925
4882,3322
4883,3322
4884,3334
4885,3353
4886,3376
4887,3435
4888,3445
4889,3559
4890,3652
4891,3749
4892,4095
4893,4095
4894,4095
4895,4095
4896,4095
4897,4095
4898,4095
4899,4095
4900,4095
4901,4095
4902,4095
4903,4095
4904,4095
4905,4095
4906,4095
4907,4095
4908,4095
4909,4095
4910,4095
4911,4095
4912,4095
4913,4095
4914,4095
4915,4095
4916,4095
4917,4095
4918,4095
4919,4095
4920,4095
4921,4095
4922,4095
4923,4095
4924,4095
4925,4095
4926,4095
4927,4095
4928,4095
4929,4095
4930,4095
4931,4095
4932,4095
4933,4095
4934,4095
4935,4095
4936,3879
4937,3818
4938,3744
4939,3682
4940,3624
4941,3558
4942,3509
4943,3473
4944,3458
4945,3454
4946,4095
4947,4095
4948,4095
4949,4095
4950,4095
4951,4095
4952,4095
4953,4095
4954,4095
4955,4095
4956,4095
4957,4095
4958,4095
4959,4095
4960,4095
4961,4095
4962,4095
4963,4095
4964,4095
4965,4095
4966,4095
4967,4095
4968,4095
4969,4095
4970,4095
4971,4095
4972,4095
4973,4095
4974,4095
4975,4095
4976,4095
4977,4095
4978,4095
4979,4095
4980,4095
4981,4095
4982,4095
4983,4095
4984,4095
4985,4095
4986,4095
4987,4095
4988,4095
4989,4095
4990,4095
4991,4095
4992,4095
4993,4095
4994,4093
4995,4042
4996,3982
4997,3919
4998,3845
4999,3774
5000,3712
5001,3484
5002,3536
5003,3603
5004,3691
5005,3783
5006,4076
5007,4015
5008,4095
5009,4095
5010,4095
5011,4095
5012,4095
5013,4095
5014,4095
5015,4095
5016,4095
5017,4095
5018,4095
5019,4095
5020,4095
5021,4095
5022,4095
5023,4095
5024,4095
5025,4095
5026,4095
5027,4095
5028,4095
5029,4095
5030,4095
5031,4095
5032,4095
5033,4095
5034,4095
5035,4095
5036,4095
5037,4095
5038,4095
5039,4095
5040,4095
5041,4095
5042,4095
5043,4095
5044,4095
5045,4095
5046,4095
5047,4095
5048,4095
5049,4095
5050,4095
5051,4095
5052,4095
5053,4095
5054,4095
5055,3706
5056,3649
5057,3604
5058,3568
5059,3549
5060,3543
5061,3561
5062,3597
5063,3634
5064,3689
5065,4095
5066,4095
5067,4095
5068,4095
5069,4095
5070,4095
5071,4095
5072,4095
5073,4095
5074,4095
5075,4095
5076,4095
5077,4095
5078,4095
5079,4095
5080,4095
5081,4095
5082,4095
5083,4095
5084,4095
5085,4095
5086,4095
5087,4095
5088,4095
5089,4095
5090,4095
5091,4095
5092,4095
5093,4095
5094,4095
5095,4095
5096,4095
5097,4095
5098,4095
5099,4095
5100,4095
5101,4095
5102,4095
5103,4095
5104,4095
5105,4095
5106,4095
5107,4095
5108,4095
5109,4095
5110,4095
5111,4095
5112,4080
5113,4015
5114,3949
5115,3878
5116,3822
5117,3758
5118,3693
5119,3647
5120,4095
5121,4095
5122,4095
5123,4095
5124,4095
5125,4095
5126,4095
5127,4095
5128,4095
5129,4095
5130,4095
5131,4095
5132,4095
5133,4095
5134,4095
5135,4095
5136,4095
5137,4095
5138,4095
5139,4095
5140,4095
5141,4095
5142,4095
5143,4095
5144,4095
5145,4095
5146,4095
5147,4095
5148,4095
5149,4095
5150,4095
5151,4095
5152,4095
5153,4095
5154,4095
5155,4095
5156,4095
5157,4095
5158,4095
5159,4095
5160,4095
5161,4095
5162,4095
5163,4095
5164,4095
5165,4095
5166,4095
5167,4095
5168,4095
5169,4095
5170,4095
5171,4095
5172,4095
5173,4095
5174,3515
5175,3511
5176,3522
5177,3551
5178,3593
5179,3639
5180,3713
5181,3793
5182,3895
5183,4007
5184,4095
5185,4095
5186,4095
5187,4095
5188,4095
5189,4095
5190,4095
5191,4095
5192,4095
5193,4095
5194,4095
5195,4095
5196,4095
5197,4095
5198,4095
5199,4095
5200,4095
5201,4095
5202,4095
5203,4095
5204,4095
5205,4095
5206,4095
5207,4095
5208,4095
5209,4095
5210,4095
5211,4095
5212,4095
5213,4095
5214,4095
5215,4095
5216,4095
5217,4095
5218,4095
5219,4095
5220,4095
5221,4095
5222,4095
5223,4095
5224,4095
5225,4095
5226,4095
5227,4095
5228,3934
5229,3869
5230,3792
5231,3730
5232,3670
5233,3607
5234,3550
5235,3519
5236,3490
5237,3482
5238,3485
5239,4095
5240,4095
5241,4095
5242,4095
5243,4095
5244,4095
5245,4095
5246,4095
5247,4095
5248,4095
5249,4095
5250,4095
5251,4095
5252,4095
5253,4095
5254,4095
5255,4095
5256,4095
5257,4095
5258,4095
5259,4095
5260,4095
5261,4095
5262,4095
5263,4095
5264,4095
5265,4095
5266,4095
5267,4095
5268,4095
5269,4095
5270,4095
5271,4095
5272,4095
5273,4095
5274,4095
5275,4095
5276,4095
5277,4095
5278,4095
5279,4095
5280,4095
5281,4095
5282,4095
5283,4095
5284,4095
5285,4095
5286,4095
5287,4095
5288,4061
5289,3988
5290,3922
5291,3858
5292,3791
5293,3533
5294,3582
5295,3641
5296,3709
5297,3797
5298,3906
5299,4021
5300,4095
5301,4095
5302,4095
5303,4095
5304,4095
5305,4095
5306,4095
5307,4095
5308,4095
5309,4095
5310,4095
5311,4095
5312,4095
5313,4095
5314,4095
5315,4095
5316,4095
5317,4095
5318,4095
5319,4095
5320,4095
5321,4095
5322,4095
5323,4095
5324,4095
5325,4095
5326,4095
5327,4095
5328,4095
5329,4095
5330,4095
5331,4095
5332,4095
5333,4095
5334,4095
5335,4095
5336,4095
5337,4095
5338,4095
5339,4095
5340,4095
5341,4095
5342,4095
5343,4095
5344,4095
5345,4095
5346,4095
