1950
1954
1957
1961
1966
1963
1967
1968
1970
1971
1968
1979
1973
1973
1969
1973
1970
1977
1984
1987
2003
2018
2035
2055
2065
2090
2190
2080
1970
1894
1907
1955
1998
2039
2100
2144
2155
2191
2225
2272
2268
2238
2197
2139
2095
2061
2034
2017
1993
1949
1913
1904
1898
1897
1899
1877
1858
1847
1856
1870
1882
1894
1895
1897
1913
1920
1925
1932
1938
1949
1947
1953
1952
1965
1962
1955
1960
1962
1954
1953
1946
1950
1959
1968
1966
1968
1969
1975
1978
1984
1984
1979
1977
1985
1991
1984
1982
1975
1982
1984
1989
1990
1995
1986
1999
1997
1996
2009
2042
2066
2069
2064
2067
2079
2071
2054
2030
2032
2032
2018
2000
1999
1999
2006
2014
2011
2011
2019
2029
2032
2004
1999
2000
2067
2209
2532
2910
2917
2575
2278
2070
1870
1793
1799
1867
1891
1882
1895
1920
1939
1961
1978
2002
1980
1974
1968
1963
1990
2016
2039
2087
2102
2119
2128
2128
2153
2171
2190
2193
2204
2195
2192
2183
2160
2130
2118
2085
2031
1999
1969
1939
1911
1900
1879
1873
1869
1869
1887
1890
1901
1904
1904
1880
1871
1858
1858
1871
1884
1894
1904
1907
1918
1917
1907
1904
1907
1911
1914
1917
1925
1927
1923
1925
1928
1919
1911
1910
1911
1904
1903
1904
1899
1897
1904
1905
1906
1905
1910
1914
1914
1905
1902
1904
1901
1892
1882
1883
1887
1887
1902
1904
1904
1937
1965
1966
1961
1953
1964
1975
1958
1935
1936
1953
1944
1930
1909
1902
1901
1897
1881
1860
1884
1902
1903
1916
1927
1939
1983
2098
2446
2890
3105
2813
2186
1967
1836
1761
1808
1822
1839
1853
1867
1872
1873
1873
1872
1872
1885
1897
1920
1963
1973
1970
1974
1983
1984
1996
2016
2035
2062
2075
2080
2109
2128
2115
2103
2121
2126
2103
2064
2009
1953
1917
1877
1847
1835
1815
1790
1776
1787
1786
1781
1770
1759
1749
1754
1757
1765
1769
1761
1770
1776
1779
1791
1792
1797
1799
1808
1813
1811
1809
1809
1807
1803
1811
1814
1811
1818
1810
1810
1808
1798
1792
1791
1792
1794
1793
1804
1801
1799
1807
1759
1819
1831
1814
1807
1803
1805
1806
1818
1822
1815
1813
1820
1817
1814
1823
1825
1832
1840
1847
1871
1883
1899
1889
1878
1903
1895
1870
1850
1856
1849
1840
1816
1808
1802
1805
1807
1809
1819
1819
1824
1831
1836
1827
1863
1939
2118
2482
2813
2686
2291
2000
1797
1684
1652
1682
1757
1791
1793
1794
1791
1792
1795
1808
1824
1832
1839
1846
1853
1867
1878
1883
1898
1916
1926
1939
1967
1984
1999
2015
2039
2041
2060
2047
2038
2032
2006
1985
1950
1910
1861
1828
1810
1790
1759
1744
1752
1750
1752
1747
1743
1754
1762
1753
1759
1765
1767
1767
1774
1779
1792
1793
1795
1798
1803
1807
1812
1827
1821
1811
1815
1831
1835
1826
1821
1824
1831
1829
1839
1833
1839
1838
1827
1830
1840
1840
1841
1851
1843
1853
1844
1850
1855
1854
1850
1856
1863
1862
1849
1859
1867
1869
1883
1899
1909
1914
1922
1933
1942
1923
1911
1931
1926
1887
1861
1850
1846
1849
1859
1858
1847
1855
1856
1847
1859
1869
1872
1885
1943
2071
2422
2768
2786
2481
2170
1970
1793
1702
1708
1760
1807
1821
1826
1839
1851
1852
1862
1867
1858
1872
1891
1902
1910
1922
1935
1937
1951
1966
1975
1987
2009
2032
2043
2064
2074
2082
2091
2080
2069
2041
2011
1978
1945
1904
1867
1843
1825
1806
1792
1783
1779
1778
1776
1777
1781
1787
1790
1792
1793
1795
1804
1811
1815
1814
1815
1830
1828
1831
1839
1840
1840
1850
1854
1849
1843
1855
1853
1860
1861
1850
1853
1854
1856
1857
1856
1859
1858
1853
1856
1857
1856
1860
1856
1859
1855
1853
1855
1855
1856
1858
1856
1865
1859
1866
1865
1871
1872
1870
1871
1881
1883
1882
1889
1904
1926
1940
1943
1917
1931
1958
1991
1908
1904
1886
1876
1874
1854
1843
1841
1853
1847
1856
1856
1862
1862
1860
1867
1873
1919
2002
2274
2717
3015
2842
2266
1939
1803
1719
1719
1767
1761
1818
1824
1839
1841
1850
1843
1863
1867
1840
1871
1895
1901
1947
1930
1911
1951
1979
1984
2000
2019
2039
2064
2086
2099
2110
2112
2114
2111
2089
2059
2010
1971
1925
1874
1845
1819
1797
1776
1772
1769
1763
1759
1757
1754
1755
1767
1761
1770
1771
1773
1774
1781
1786
1789
1806
1802
1801
1809
1813
1822
1829
1825
1829
1833
1833
1835
1839
1847
1840
1840
1843
1846
1846
1847
1842
1838
1843
1845
1840
1843
1846
1851
1854
1851
1851
1861
1856
1857
1854
1861
1861
1872
1862
1867
1862
1872
1869
1873
1862
1876
1872
1874
1871
1873
1873
1885
1886
1909
1946
1938
1939
1937
1945
1943
1933
1920
1897
1898
1890
1871
1856
1855
1856
1865
1866
1857
1859
1859
1863
1866
1869
1886
1933
2064
2341
2757
2940
2619
2187
1920
1797
1713
1712
1755
1807
1831
1847
1843
1842
1857
1861
1865
1870
1886
1898
1899
1906
1920
1938
1938
1955
1973
1991
2001
2010
2038
2069
2086
2091
2097
2107
2107
2109
2098
2070
2035
1987
1933
1901
1881
1842
1814
1797
1791
1790
1790
1783
1792
1801
1795
1793
1795
1808
1807
1800
1809
1809
1815
1819
1831
1833
1835
1838
1854
1868
1862
1862
1871
1874
1879
1872
1875
1883
1888
1887
1887
1884
1887
1891
1894
1893
1888
1898
1903
1898
1894
1895
1892
1893
1896
1904
1891
1903
1902
1901
1905
1902
1899
1895
1906
1899
1904
1901
1904
1896
1909
1918
1914
1933
1946
1968
1980
1978
2000
2003
1999
1968
1936
1936
1949
1934
1897
1903
1884
1887
1893
1887
1883
1886
1883
1891
1887
1889
1901
1936
2022
2220
2661
2917
2763
2362
2047
1871
1753
1722
1764
1827
1858
1872
1875
1884
1891
1897
1906
1904
1955
1927
1935
1941
1957
1963
1974
1998
1993
2002
2119
2057
2077
2085
2111
2128
2134
2145
2147
2147
2129
2102
2047
2012
1973
1926
1888
1870
1850
1833
1822
1814
1812
1811
1813
1808
1808
1815
1818
1826
1827
1838
1837
1841
1851
1854
1849
1856
1855
1861
1878
1881
1880
1894
1895
1891
1893
1898
1899
1898
1893
1899
1899
1898
1899
1904
1904
1902
1904
1908
1904
1908
1904
1904
1913
1913
1914
1907
1911
1906
1906
1917
1918
1911
1918
1925
1918
1917
1925
1924
1925
1932
1926
1932
1936
1936
1936
1945
1937
1936
1933
1936
1931
1936
1944
1947
1946
1959
1983
2002
2004
1994
1999
2010
2018
1987
1968
1962
1963
1951
1934
1919
1911
1914
1905
1910
1918
1924
1922
1929
1931
1940
1977
2045
2250
2654
3043
3024
2480
2074
1895
1802
1778
1825
1865
1888
1894
1899
1905
1914
1919
1921
1930
1935
1950
1959
1965
1970
1986
1998
2001
2014
2029
2045
2074
2095
2114
2133
2151
2160
2170
2177
2178
2165
2146
2110
2068
2027
1971
1934
1897
1872
1855
1838
1825
1822
1824
1826
1820
1827
1823
1834
1839
1840
1837
1841
1849
1856
1853
1855
1863
1863
1874
1882
1887
1887
1902
1898
1899
1904
1899
1899
1904
1901
1893
1898
1904
1901
1893
1897
1899
1904
1904
1904
1901
1899
1904
1906
1903
1906
1898
1901
1904
1904
1904
1910
1906
1911
1909
1904
1904
1907
1915
1911
1906
1907
1906
1913
1910
1906
1905
1904
1909
1909
1914
1908
1913
1916
1917
1911
1915
1932
1956
1975
1969
1957
1967
1984
1968
1950
1934
1930
1922
1911
1890
1872
1879
1886
1875
1872
1873
1872
1884
1873
1883
1895
1941
2019
2235
2630
2961
2805
2352
2020
1831
1739
1712
1754
1811
1825
1827
1838
1850
1854
1855
1869
1866
1872
1877
1889
1902
1906
1922
1935
1954
1955
1955
1985
2017
2032
2054
2061
2078
2096
2106
2111
2107
2110
2094
2054
2005
1952
1904
1872
1846
1822
1803
1791
1776
1775
1776
1767
1762
1776
1779
1775
1776
1767
1771
1781
1787
1787
1798
1805
1814
1819
1837
1835
1827
1834
1840
1838
1834
1835
1840
1845
1843
1837
1839
1846
1840
1840
1840
1843
1842
1843
1842
1843
1849
1843
1840
1847
1840
1837
1840
1850
1835
1843
1853
1847
1840
1845
1855
1856
1870
1875
1877
1879
1874
1872
1874
1876
1877
1878
1882
1886
1918
1935
1938
1936
1952
1962
1949
1929
1899
1876
1880
1866
1787
1753
1765
1797
1808
1860
1872
1872
1867
1886
1878
1874
1907
1969
2118
2441
2874
2870
2467
2093
1862
1750
1692
1722
1777
1828
1856
1870
1856
1840
1826
1857
1872
1883
1897
1904
1893
1895
1911
1919
1940
1932
1941
1995
2025
2022
2047
2080
2094
2112
2126
2117
2112
2109
2080
2054
2017
1947
1886
1849
1805
1774
1755
1739
1712
1709
1706
1700
1701
1702
1698
1680
1549
1551
1602
1674
1710
1728
1731
1735
1727
1744
1775
1790
1808
1831
1815
1809
1809
1808
1808
1815
1809
1797
1807
1808
1807
1815
1808
1793
1799
1809
1803
1794
1804
1797
1790
1792
1776
1782
1792
1807
1803
1805
1808
1799
1795
1805
1797
1825
1812
1827
1819
1834
1884
1901
1909
1911
1921
1953
1955
1925
1911
1902
1875
1863
1857
1845
1840
1842
1840
1841
1850
1857
1845
1858
1874
1872
1873
1910
2000
2215
2631
2759
2538
2288
2026
1836
1713
1680
1714
1778
1799
1801
1805
1827
1833
1837
1827
1831
1840
1856
1855
1859
1876
1894
1905
1919
1921
1926
1955
1969
1985
2000
2023
2031
2045
2052
2042
2037
2032
2011
1975
1951
1905
1859
1840
1823
1803
1797
1795
1795
1792
1790
1796
1793
1806
1802
1805
1811
1810
1812
1825
1834
1835
1840
1854
1857
1859
1865
1858
1864
1867
1856
1857
1866
1857
1856
1861
1856
1855
1865
1863
1856
1855
1861
1849
1850
1856
1859
1859
1861
1856
1853
1858
1862
1871
1897
1919
1927
1945
1968
2000
1997
1968
1922
1893
1892
1872
1840
1814
1805
1797
1808
1807
1795
1809
1817
1813
1819
1821
1808
1837
1893
1962
2229
2729
2944
2703
2224
1866
1744
1680
1693
1735
1763
1776
1776
1776
1789
1786
1799
1815
1812
1821
1830
1843
1841
1866
1870
1883
1904
1925
1937
1961
1977
2000
1999
2000
1989
1959
2000
2026
2037
2035
2003
1953
1905
1872
1837
1804
1776
1750
1731
1729
1716
1717
1715
1710
1701
1709
1712
1717
1744
1763
1766
1808
1818
1786
1825
1845
1792
1765
1761
1753
1769
1805
1834
1851
1852
1835
1816
1811
1821
1815
1818
1828
1813
1811
1827
1834
1824
1831
1821
1825
1866
1853
1825
1851
1843
1839
1855
1864
1874
1875
1904
1939
1942
1924
1884
1851
1830
1807
1785
1776
1776
1776
1786
1785
1770
1769
1776
1782
1784
1799
1813
1849
1902
2032
2353
2829
2864
2486
2087
1834
1702
1655
1685
1733
1773
1792
1806
1812
1806
1810
1827
1854
1869
1877
1891
1895
1907
1915
1917
1943
1958
1975
1991
2019
2035
2065
2101
2119
2126
2131
2141
2134
2130
2111
2077
2027
1984
1936
1907
1870
1845
1830
1827
1814
1808
1808
1807
1815
1761
1828
1825
1827
1845
1825
1833
1837
1835
1842
1850
1856
1858
1869
1872
1871
1872
1873
1873
1872
1874
1873
1874
1877
1882
1877
1879
1883
1881
1889
1885
1878
1887
1887
1886
1889
1889
1882
1879
1884
1887
1887
1890
1890
1887
1899
1898
1911
1943
1965
1973
1968
1968
1978
1981
1953
1927
1918
1911
1903
1909
1858
1858
1856
1861
1859
1856
1870
1872
1872
1877
1890
1901
1945
2064
2386
2818
2992
2710
2180
1936
1799
1738
1763
1814
1845
1854
1859
1877
1901
1904
1891
1888
1885
1889
1906
1921
1935
1943
1957
1961
1983
1984
2015
2031
2047
2069
2088
2106
2121
2134
2132
2138
2134
2112
2083
2039
1986
1950
1906
1871
1847
1833
1813
1806
1801
1802
1795
1799
1798
1803
1806
1808
1809
1817
1815
1821
1831
1840
1840
1846
1853
1869
1866
1872
1874
1878
1879
1885
1891
1895
1888
1888
1897
1901
1891
1891
1893
1891
1904
1901
1891
1895
1901
1897
1897
1901
1902
1894
1892
1891
1892
1899
1904
1900
1911
1911
1899
1906
1909
1905
1907
1909
1918
1916
1927
1957
1982
1996
1985
1977
1984
1994
1969
1941
1936
1931
1915
1899
1887
1882
1893
1885
1874
1885
1897
1904
1904
1897
1893
1905
1972
2113
2416
2852
3003
2640
2191
1936
1791
1744
1766
1813
1847
1859
1863
1872
1883
1890
1895
1898
1904
1906
1918
1930
1936
1950
1948
1969
1984
2003
2017
2034
2061
2084
2091
2099
2118
2131
2137
2128
2117
2153
2076
2029
1984
1944
1903
1867
1839
1821
1806
1798
1790
1783
1792
1786
1790
1791
1797
1793
1801
1808
1810
1808
1823
1818
1825
1829
1837
1838
1840
1843
1847
1851
1851
1856
1857
1861
1842
1856
1858
1856
1851
1858
1855
1849
1853
1849
1845
1854
1853
1853
1849
1847
1855
1861
1862
1856
1858
1859
1859
1856
1857
1867
1867
1872
1872
1871
1873
1872
1872
1875
1888
1888
1920
1951
1954
1945
1939
1946
1952
1935
1906
1902
1904
1892
1866
1855
1847
1850
1851
1853
1856
1856
1859
1862
1861
1873
1891
1937
2104
2437
2864
2974
2538
2115
1892
1766
1712
1696
1791
1814
1830
1839
1845
1841
1851
1859
1859
1869
1873
1884
1895
1904
1915
1921
1936
1941
1953
1968
1987
2009
2032
2041
2058
2064
2075
2079
2076
2073
2047
2022
1989
1936
1891
1847
1815
1794
1771
1754
1744
1713
1673
1728
1735
1739
1739
1734
1740
1738
1740
1746
1748
1751
1760
1761
1767
1776
1782
1789
1787
1787
1790
1794
1795
1793
1787
1790
1792
1791
1796
1791
1790
1793
1791
1789
1787
1787
1791
1795
1794
1798
1795
1792
1792
1794
1806
1807
1801
1810
1807
1807
1807
1808
1812
1819
1820
1817
1822
1823
1821
1823
1833
1838
1851
1879
1895
1895
1890
1893
1907
1901
1872
1856
1856
1854
1836
1822
1808
1809
1813
1820
1808
1815
1846
1823
1829
1839
1840
1870
1995
2262
2696
2934
2669
2192
1920
1776
1685
1700
1744
1778
1821
1811
1815
1825
1830
1838
1833
1846
1856
1856
1871
1885
1897
1911
1920
1931
1946
1965
1983
2000
2018
2046
2062
2071
2089
2093
2097
2092
2079
2055
2025
1982
1936
1894
1854
1826
1805
1789
1775
1776
1771
1775
1779
1778
1777
1782
1790
1790
1797
1801
1808
1811
1815
1822
1825
1838
1840
1843
1855
1855
1853
1856
1861
1865
1863
1867
1865
1869
1872
1868
1867
1863
1877
1879
1878
1881
1885
1884
1890
1887
1894
1895
1894
1900
1904
1898
1895
1903
1906
1911
1920
1920
1919
1920
1919
1919
1919
1933
1924
1927
1934
1958
1984
2000
2005
1997
1999
2015
2000
1975
1961
1957
1957
1948
1921
1913
1906
1905
1909
1919
1926
1920
1920
1920
1921
1943
1979
2062
2315
2763
3053
2886
2347
2038
1879
1792
1783
1833
1876
1890
1895
1904
1906
1919
1926
1927
1930
1939
1957
1954
1965
2059
1986
2002
2013
2032
2045
2057
2081
2099
2115
2139
2146
2156
2160
2166
2162
2160
2129
2098
2057
2017
1969
1934
1901
1874
1859
1853
1845
1849
1849
1842
1842
1845
1846
1843
1853
1852
1856
1863
1867
1867
1874
1881
1874
1871
1968
1891
1895
1942
1897
1893
1888
1900
1902
1898
1882
1885
1893
1904
1895
1883
1873
1875
1889
1893
1889
1877
1882
1882
1883
1884
1883
1873
1877
1878
1886
1884
1885
1874
1882
1893
1891
1907
1931
1936
1933
1933
1945
1947
1922
1894
1888
1889
1878
1856
1846
1843
1840
1834
1833
1829
1843
1839
1841
1849
1851
1861
1911
2026
2339
2715
2800
2512
2118
1920
1747
1659
1671
1730
1782
1789
1799
1791
1807
1813
1818
1822
1830
1840
1847
1856
1857
1859
1870
1878
1888
1903
1922
1930
1947
1967
1985
1990
2002
2020
2030
2027
2017
1996
1969
1940
1904
1868
1833
1798
1772
1753
1741
1727
1723
1714
1713
1728
1728
1723
1733
1731
1735
1745
1748
1743
1757
1770
1776
1777
1783
1791
1791
1797
1806
1794
1791
1799
1797
1797
1805
1808
1808
1803
1803
1801
1807
1808
1810
1821
1821
1814
1814
1812
1815
1815
1791
1834
1835
1837
1861
1889
1915
1910
1922
1948
1936
1906
1886
1887
1872
1872
1842
1821
1819
1822
1826
1822
1818
1823
1829
1834
1825
1822
1840
1872
1936
2101
2512
2823
2738
2361
2039
1853
1712
1671
1712
1775
1808
1819
1835
1840
1843
1851
1856
1860
1869
1881
1898
1904
1917
1927
1936
1950
1953
1968
1988
2004
2023
2061
2081
2084
2092
2101
2102
2097
2087
2070
2037
2001
1951
1904
1872
1842
1819
1807
1793
1788
1792
1793
1789
1787
1786
1787
1791
1799
1798
1806
1811
1813
1820
1833
1831
1837
1845
1865
1930
1854
1862
1858
1871
1857
1861
1863
1872
1872
1859
1862
1863
1861
1872
1872
1865
1869
1871
1872
1873
1875
1873
1875
1879
1887
1906
1936
1969
1985
1975
1984
2004
2002
1980
1956
1943
1934
1911
1887
1872
1860
1863
1871
1867
1865
1868
1878
1875
1879
1879
1891
1936
2016
2197
2608
3063
3008
2502
2064
1866
1779
1767
1811
1857
1872
1875
1872
1883
1893
1904
1911
1925
1927
1929
1941
1955
1961
1940
1989
2001
2019
2030
2036
2070
2086
2103
2118
2138
2139
2149
2151
2146
2138
2121
2096
2037
1998
1956
1920
1891
1872
1855
1840
1840
1839
1838
1835
1837
1840
1840
1842
1849
1854
1855
1856
1867
1872
1871
1872
1878
1883
1890
1898
1896
1898
1901
1903
1904
1909
1911
1904
1898
1908
1904
1904
1904
1907
1916
1915
1910
1916
1917
1921
1936
1961
1984
2007
2003
2007
2031
2047
2001
1977
1968
1954
1927
1909
1902
1891
1886
1886
1889
1879
1891
1904
1904
1904
1913
1913
1923
1968
2126
2441
2871
2993
2590
2158
1921
1795
1761
1793
1843
1873
1886
1889
1900
1911
1909
1920
1930
1936
1936
1942
1956
1967
1980
1990
2001
2022
2045
2063
2085
2094
2113
2135
2160
2163
2175
2173
2163
2151
2129
2100
2057
2010
1967
1933
1904
1879
1860
1843
1841
1840
1839
1843
1847
1851
1855
1862
1862
1868
1872
1872
1876
1891
1894
1899
1905
1904
1909
1916
1919
1922
1925
1930
1926
1927
1927
1934
1933
1936
1936
1939
1938
1936
1936
1937
1937
1942
1949
1952
1950
1953
1953
1946
1947
1951
1953
1950
1967
1967
1994
2022
2032
2027
2022
2037
2057
2035
1998
1980
1982
1973
1943
1936
1931
1920
1925
1931
1936
1937
1939
1947
1941
1941
1949
1984
2073
2262
2765
3034
2853
2382
2029
1879
1794
1799
1856
1897
1906
1913
1933
1929
1931
1936
1939
1949
1959
1969
1983
1985
1989
1999
2010
2026
2038
2064
2079
2095
2111
2123
2137
2151
2157
2167
2163
2160
2145
2125
2083
2045
2000
1968
1919
1894
1877
1866
1861
1856
1849
1841
1844
1847
1843
1854
1860
1862
1859
1870
1869
1873
1877
1883
1884
1885
1889
1894
1895
1891
1893
1898
1895
1887
1891
1895
1891
1897
1897
1891
1894
1893
1893
1893
1889
1887
1890
1891
1901
1901
1899
1904
1902
1902
1907
1905
1904
1904
1900
1903
1901
1902
1904
1989
1933
1959
1974
1968
1953
1967
1986
1964
1935
1926
1921
1910
1887
1869
1863
1863
1868
1862
1869
1868
1871
1872
1875
1873
1891
1931
2032
2281
2785
2979
2706
2251
1936
1793
1725
1739
1787
1839
1847
1855
1858
1865
1859
1871
1878
1885
1888
1891
1902
1915
1926
1925
1936
1948
1963
1977
1997
2019
2033
2053
2064
2077
2076
2083
2085
2078
2068
2038
1997
1957
1923
1884
1847
1823
1802
1786
1787
1781
1773
1774
1773
1771
1775
1776
1773
1777
1787
1791
1799
1805
1807
1808
1819
1822
1823
1823
1831
1828
1825
1829
1825
1840
1834
1830
1830
1835
1827
1829
1824
1825
1829
1828
1833
1826
1827
1826
1827
1831
1830
1837
1833
1831
1826
1831
1830
1826
1823
1823
1830
1835
1838
1843
1844
1860
1889
1909
1906
1903
1903
1919
1906
1878
1869
1862
1855
1840
1822
1808
1809
1808
1811
1808
1813
1818
1823
1830
1837
1838
1867
1947
2191
2608
2881
2747
2250
1973
1798
1692
1690
1739
1776
1803
1808
1810
1817
1818
1819
1837
1852
1851
1855
1858
1863
1873
1894
1904
1914
1898
1957
1959
1987
1988
2001
2015
2032
2039
2035
2054
2054
2034
2015
1984
1949
1907
1863
1827
1798
1769
1749
1749
1744
1731
1735
1732
1733
1734
1739
1742
1747
1748
1760
1757
1772
1777
1776
1792
1795
1787
1785
1791
1789
1797
1797
1803
1797
1795
1793
1787
1798
1808
1801
1798
1802
1808
1813
1811
1809
1808
1805
1808
1811
1812
1810
1811
1815
1822
1819
1826
1821
1821
1823
1825
1824
1838
1851
1872
1890
1891
1889
1898
1909
1903
1877
1866
1873
1870
1855
1837
1814
1808
1814
1821
1811
1813
1824
1834
1840
1852
1851
1874
1937
2084
2487
2800
2704
2369
2102
1898
1744
1689
1714
1765
1808
1819
1837
1844
1878
1869
1872
1875
1881
1890
1903
1904
1918
1933
1940
1947
1967
1974
1992
2012
2027
2045
2065
2076
2078
2082
2085
2092
2084
2078
2054
2002
1974
1938
1906
1881
1866
1847
1840
1833
1821
1820
1827
1830
1828
1833
1837
1840
1853
1856
1857
1855
1857
1871
1872
1879
1880
1882
1882
1875
1883
1883
1885
1881
1882
1884
1883
1889
1890
1889
1893
1881
1878
1884
1882
1877
1885
1902
1886
1875
1882
1882
1881
1891
1891
1894
1899
1906
1904
1904
1907
1915
1936
1968
1983
1971
1980
1990
1997
1969
1944
1936
1936
1923
1907
1898
1887
1878
1885
1881
1885
1887
1889
1898
1893
1901
1904
1930
2031
2240
2655
2983
2833
2358
2034
1872
1755
1749
1802
1841
1859
1872
1882
1883
1936
1945
1914
1904
1903
1905
1936
1963
1969
1970
1983
1952
1999
2023
2039
2063
2082
2091
2097
2114
2129
2142
2141
2134
2113
2096
2067
2027
1984
1943
1904
1874
1856
1842
1793
1827
1823
1825
1826
1821
1818
1827
1839
1834
1837
1840
1844
1853
1859
1863
1870
1872
1877
1882
1887
1887
1885
1892
1887
1889
1887
1891
1889
1882
1885
1875
1871
1881
1877
1878
1881
1886
1893
1894
1897
1891
1893
1902
1894
1891
1899
1898
1894
1901
1903
1903
1909
1918
1947
1967
1978
1963
1955
1969
1984
1959
1929
1920
1920
1918
1897
1881
1880
1875
1871
1872
1876
1872
1882
1885
1885
1889
1905
1923
2041
2279
2773
3009
2798
2319
1968
1826
1738
1749
1805
1840
1856
1856
1865
1868
1873
1883
1881
1885
1902
1906
1917
1927
1936
1942
1958
1969
1983
1997
2013
2027
2053
2074
2087
2095
2100
2098
2100
2096
2093
2064
2021
1975
1933
1916
1856
1836
1821
1799
1790
1785
1776
1776
1776
1776
1786
1792
1792
1793
1794
1801
1798
1805
1803
1817
1811
1824
1835
1834
1838
1840
1840
1837
1840
1841
1840
1840
1838
1835
1841
1846
1841
1850
1843
1840
1838
1839
1840
1839
1840
1843
1841
1842
1843
1837
1842
1840
1840
1870
1855
1857
1861
1859
1863
1867
1893
1920
1935
1933
1930
1936
1941
1920
1887
1876
1877
1867
1845
1840
1834
1833
1840
1833
1836
1841
1843
1847
1847
1845
1856
1898
2001
2255
2755
2960
2707
2241
1911
1773
1703
1717
1776
1803
1810
1808
1872
1834
1839
1842
1845
1851
1855
1861
1878
1896
1901
1914
1919
1933
1947
1962
1982
2000
2013
2029
2043
2059
2062
2068
2079
2079
2060
2032
1985
1943
1906
1869
1833
1807
1787
1773
1770
1759
1757
1755
1759
1749
1757
1763
1772
1774
1776
1779
1785
1792
1792
1792
1794
1805
1810
1808
1808
1815
1821
1817
1819
1820
1824
1821
1819
1816
1819
1818
1820
1814
1817
1822
1827
1821
1822
1823
1833
1833
1831
1824
1831
1838
1842
1843
1839
1845
1839
1840
1849
1850
1845
1867
1904
1917
1911
1907
1917
1933
1914
1882
1872
1877
1871
1841
1825
1814
1819
1815
1814
1823
1831
1830
1821
1827
1840
1850
1897
1987
2224
2659
2939
2704
2244
1945
1766
1686
1702
1747
1795
1807
1816
1814
1828
1833
1835
1842
1849
1856
1869
1872
1879
1899
1909
1923
1931
1952
1965
1972
1998
2018
2030
2038
2062
2075
2081
2081
2071
2055
2033
1995
1956
1910
1872
1839
1808
1791
1775
1767
1758
1755
1757
1765
1765
1766
1767
1773
1771
1778
1782
1792
1795
1750
1796
1803
1809
1811
1814
1811
1811
1815
1823
1815
1818
1817
1810
1808
1827
1815
1806
1779
1810
1815
1812
1809
1818
1815
1820
1812
1818
1822
1818
1812
1817
1814
1808
1824
1814
1809
1817
1825
1835
1861
1879
1886
1878
1872
1889
1884
1853
1831
1831
1831
1805
1789
1787
1787
1779
1777
1780
1779
1789
1792
1787
1778
1795
1825
1907
2081
2491
2794
2717
2333
1998
1814
1685
1651
1687
1728
1755
1766
1786
1786
1785
1792
1796
1803
1817
1822
1821
1835
1844
1853
1865
1882
1890
1905
1921
1939
1954
1968
1984
1994
2002
2007
2005
2011
2009
1988
1953
1924
1885
1856
1812
1783
1764
1747
1741
1729
1727
1725
1727
1728
1726
1726
1735
1742
1744
1747
1753
1754
1762
1773
1773
1776
1782
1788
1789
1795
1797
1793
1791
1797
1796
1792
1801
1797
1795
1798
1801
1807
1808
1813
1808
1807
1808
1808
1811
1819
1821
1824
1812
1820
1822
1827
1835
1843
1872
1899
1903
1904
1909
1968
1925
1899
1919
1866
1862
1861
1836
1821
1813
1815
1818
1820
1822
1835
1841
1835
1838
1840
1856
1904
2041
2346
2778
2927
2557
2146
1906
1763
1693
1728
1779
1817
1840
1838
1840
1850
1857
1860
1875
1887
1885
1902
1918
1919
1935
1943
1959
1973
1993
2007
2021
2052
2075
2090
2106
2112
2123
2128
2127
2117
2097
2074
2032
1996
1942
1908
1877
1857
1839
1825
1825
1823
1820
1824
1821
1819
1827
1831
1826
1832
1838
1845
1857
1859
1870
1872
1877
1877
1889
1891
1897
1900
1904
1904
1905
1902
1904
1904
1908
1906
1909
1911
1912
1914
1910
1916
1917
1919
1917
1918
1914
1920
1919
1922
1915
1920
1927
1926
1927
1931
1939
1954
1987
2005
2011
1993
2000
2014
2013
1985
1967
1954
1963
1949
1930
1920
1905
1904
1905
1904
1918
1918
1930
1922
1952
1931
1959
2032
2238
2639
3007
2973
2448
2103
1913
1803
1782
1827
1870
1901
1905
1907
1911
1917
1921
1931
1941
1946
1952
1963
1972
1984
1989
2000
2018
2032
2043
2061
2081
2101
2115
2129
2147
2146
2159
2165
2167
2154
2128
2096
2047
2003
1966
1935
1905
1888
1863
1858
1854
1846
1843
1842
1841
1844
1847
1843
1846
1856
1863
1862
1875
1887
1873
1887
1893
1904
1904
1905
1897
1894
1904
1908
1909
1914
1917
1911
1904
1902
1902
1907
1907
1910
1907
1906
1906
1914
1913
1917
1907
1907
1907
1904
1910
1911
1913
1909
1914
1915
1910
1890
1953
1971
1989
1977
1969
1978
1987
1965
1936
1934
1936
1929
1908
1886
1872
1877
1879
1878
1886
1883
1879
1893
1893
1899
1919
1965
2096
2387
2775
2853
2499
2193
1984
1817
1726
1730
1779
1827
1844
1856
1865
1869
1875
1875
1881
1883
1899
1904
1904
1909
1935
1951
1952
1949
1963
1979
1988
2000
2028
2046
2064
2063
2074
2090
2082
2074
2070
2039
1988
1963
1926
1890
1856
1838
1809
1797
1795
1786
1783
1782
1795
1798
1803
1792
1790
1792
1808
1813
1809
1808
1814
1830
1819
1826
1837
1843
1842
1856
1857
1848
1846
1846
1851
1857
1856
1856
1853
1855
1855
1856
1856
1854
1851
1854
1856
1850
1850
1855
1861
1860
1858
1870
1902
1918
1932
1924
1936
1959
1959
1936
1902
1893
1895
1878
1851
1842
1837
1833
1840
1834
1835
1835
1840
1846
1841
1845
1854
1871
1939
2091
2479
2807
2765
2407
2101
1898
1738
1675
1696
1755
1795
1819
1833
1839
1841
1850
1856
1867
1868
1869
1885
1895
1904
1913
1934
1941
1952
1970
1983
1997
2013
2031
2047
2064
2078
2075
2081
2081
2064
2039
2003
1966
1926
1897
1863
1827
1814
1804
1791
1783
1783
1779
1787
1779
1777
1787
1788
1792
1794
1805
1808
1808
1818
1825
1827
1837
1838
1838
1837
1851
1851
1850
1856
1857
1861
1856
1857
1859
1862
1861
1857
1854
1851
1856
1859
1857
1845
1857
1859
1855
1858
1863
1862
1863
1868
1870
1872
1874
1875
1875
1909
1889
1914
1939
1955
1941
1934
1952
1955
1935
1910
1899
1898
1888
1866
1856
1853
1856
1852
1853
1858
1857
1857
1856
1862
1872
1894
1938
2093
2398
2857
3047
2655
2153
1884
1766
1711
1747
1790
1813
1825
1837
1840
1841
1817
1856
1858
1866
1873
1882
1847
1903
1917
1925
1935
1951
1962
1982
1998
2021
2045
2064
2077
2082
2096
2101
2102
2096
2077
2042
2003
1968
1920
1879
1847
1828
1807
1786
1783
1780
1779
1776
1775
1777
1788
1785
1786
1792
1805
1808
1811
1821
1822
1826
1835
1834
1837
1840
1839
1843
1846
1845
1855
1856
1858
1861
1856
1856
1858
1855
1854
1853
1854
1849
1853
1855
1853
1856
1856
1852
1849
1857
1856
1858
1856
1861
1861
1861
1868
1863
1858
1894
1926
1940
1941
1929
1939
1963
1936
1901
1889
1890
1881
1859
1839
1825
1821
1822
1821
1821
1824
1835
1837
1840
1840
1855
1885
1971
2193
2625
2971
2786
2291
1951
1766
1680
1683
1728
1774
1792
1792
1798
1804
1815
1814
1821
1833
1839
1843
1847
1858
1863
1872
1886
1898
1914
1927
1947
1968
1984
1999
2016
2029
2031
2032
2038
2031
2005
1990
1958
1904
1867
1827
1789
1755
1739
1728
1714
1711
1707
1703
1701
1697
1703
1711
1715
1715
1721
1721
1729
1735
1747
1748
1750
1761
1761
1765
1767
1778
1774
1779
1781
1776
1779
1781
1782
1790
1783
1783
1785
1782
1780
1776
1774
1790
1795
1792
1793
1798
1803
1811
1791
1810
1811
1808
1815
1891
1818
1826
1830
1824
1840
1841
1845
1874
1904
1916
1917
1904
1918
1937
1921
1885
1872
1881
1874
1854
1835
1833
1831
1828
1830
1840
1840
1843
1845
1843
1851
1867
1904
1999
2192
2731
2993
2802
2341
1946
1808
1733
1729
1781
1785
1829
1845
1853
1851
1858
1872
1878
1885
1899
1904
1919
1926
1938
1943
1957
1971
1983
2000
2022
2032
2057
2074
2093
2102
2112
2115
2116
2117
2101
2070
2030
1987
1949
1913
1872
1843
1828
1819
1802
1798
1799
1799
1806
1803
1810
1809
1817
1814
1818
1826
1835
1839
1847
1854
1853
1859
1872
1871
1872
1879
1878
1875
1889
1885
1881
1883
1882
1874
1883
1875
1872
1881
1890
1886
1883
1887
1887
1886
1882
1885
1884
1881
1888
1894
1893
1891
1889
1895
1902
1896
1901
1905
1909
1915
1920
1914
1925
1955
1982
1985
1975
1971
1984
1998
1981
1946
1937
1936
1925
1907
1890
1886
1889
1891
1899
1894
1899
1904
1914
1915
1922
1939
1995
2159
2501
2919
2961
2542
2147
1934
1795
1762
1801
1849
1897
1886
1891
1901
1898
1904
1913
1923
1924
1924
1938
1949
1962
1971
1986
1990
2003
2016
2037
2063
2085
2102
2112
2125
2146
2158
2155
2150
2143
2133
2102
2064
2020
1975
1936
1904
1873
1856
1851
1842
1837
1834
1870
1827
1838
1843
1842
1842
1853
1867
1875
1870
1871
1882
1887
1896
1895
1898
1904
1909
1911
1915
1911
1917
1917
1923
1858
1918
1918
1916
1918
1919
1925
1918
1915
1919
1927
1934
1926
1927
1931
1936
1936
1939
1936
1935
1936
1938
1947
1940
1943
1949
1950
1968
1997
2011
2010
2008
2011
2029
2014
1987
1979
1981
1966
1947
1937
1936
1925
1929
1931
1924
1936
1938
1934
1935
1939
1950
1995
2102
2434
2784
2928
2673
2271
2066
1878
1776
1767
1813
1867
1890
1904
1911
1915
1917
1920
1922
1931
1937
1949
1962
1968
1981
1992
2000
2005
2019
2032
2047
2018
2089
2096
2112
2117
2117
2119
2127
2117
2103
2078
2034
1994
1950
1922
1883
1862
1841
1824
1814
1811
1808
1806
1811
1808
1812
1819
1818
1822
1829
1834
1835
1838
1841
1851
1852
1855
1856
1857
1859
1872
1865
1864
1867
1869
1872
1872
1865
1861
1869
1866
1863
1865
1873
1870
1866
1862
1869
1867
1866
1861
1865
1867
1867
1861
1868
1867
1869
1869
1872
1872
1872
1872
1886
1925
1942
1959
1949
1951
1961
1957
1925
1903
1899
1897
1883
1862
1851
1844
1847
1849
1852
1856
1860
1857
1856
1860
1869
1897
1968
2137
2496
2951
2935
2483
2064
1839
1728
1702
1753
1805
1816
1837
1839
1838
1837
1840
1852
1866
1873
1877
1886
1893
1905
1920
1927
1937
1953
1969
1990
2009
2029
2047
2065
2075
2086
2094
2091
2096
2079
2062
2033
1999
1955
1911
1872
1835
1807
1796
1785
1782
1774
1766
1773
1776
1776
1776
1777
1783
1787
1800
1799
1804
1799
1807
1819
1826
1831
1829
1831
1839
1841
1836
1838
1838
1837
1840
1848
1856
1862
1853
1845
1845
1850
1849
1847
1853
1841
1841
1856
1863
1856
1851
1847
1841
1855
1863
1855
1854
1856
1858
1867
1904
1913
1921
1936
1951
1942
1931
1901
1888
1894
1872
1847
1835
1835
1829
1821
1825
1823
1881
1826
1831
1832
1842
1853
1872
1939
2096
2394
2778
2730
2393
2118
1873
1722
1667
1687
1744
1778
1798
1808
1821
1819
1810
1809
1827
1839
1841
1889
1855
1858
1875
1877
1883
1904
1921
1934
1948
1954
1966
1951
2000
2010
2010
1962
2019
2001
1985
1962
1922
1885
1849
1808
1758
1755
1745
1728
1712
1715
1714
1715
1712
1715
1713
1715
1718
1726
1733
1733
1739
1744
1747
1742
1757
1759
1759
1759
1763
1771
1808
1763
1768
1767
1771
1770
1767
1775
1776
1770
1774
1777
1776
1819
1767
1773
1775
1775
1770
1777
1777
1777
1789
1811
1835
1845
1857
1872
1904
1924
1907
1870
1846
1837
1806
1780
1767
1755
1751
1760
1756
1757
1766
1767
1774
1776
1776
1776
1791
1836
1965
2242
2661
2842
2513
2112
1870
1712
1624
1643
1695
1737
1763
1771
1782
1795
1805
1808
1819
1831
1838
1841
1847
1861
1872
1883
1899
1911
1933
1943
1962
1982
2005
2027
2042
2063
2064
2064
2061
2057
2032
2010
1977
1936
1889
1853
1831
1806
1790
1776
1775
1761
1762
1769
1771
1766
1776
1771
1773
1777
1777
1790
1807
1809
1811
1813
1823
1824
1827
1833
1840
1840
1851
1846
1853
1857
1867
1859
1857
1859
1862
1863
1869
1862
1861
1863
1862
1868
1861
1865
1872
1872
1872
1878
1881
1886
1877
1882
1884
1890
1894
1904
1921
1956
1977
1978
1971
1984
1991
1978
1952
1933
1931
1925
1917
1893
1886
1879
1875
1886
1891
1890
1899
1903
1902
1905
1918
1947
2043
2258
2686
3030
2898
2396
2029
1860
1762
1761
1808
1852
1866
1872
1879
1881
1895
1904
1911
1917
1924
1936
1938
1946
1961
1967
1975
1991
2002
2023
2038
2055
2081
2101
2113
2123
2134
2145
2139
2135
2117
2096
2072
2026
1974
1939
1909
1886
1856
1838
1834
1825
1826
1821
1819
1825
1827
1822
1823
1819
1830
1834
1840
1840
1853
1852
1849
1856
1858
1861
1863
1866
1870
1872
1873
1872
1866
1873
1872
1869
1867
1861
1866
1866
1860
1867
1861
1851
1860
1856
1857
1857
1855
1857
1866
1856
1856
1862
1859
1869
1856
1853
1854
1866
1886
1915
1929
1932
1922
1930
1939
1919
1886
1873
1878
1852
1842
1823
1818
1818
1818
1814
1816
1817
1829
1826
1836
1835
1847
1900
1987
2234
2742
2971
2736
2243
1904
1751
1677
1682
1737
1778
1789
1789
1792
1801
1807
1807
1820
1829
1834
1841
1856
1867
1878
1887
1883
1904
1921
1935
1951
1981
1995
2002
2018
2030
2039
2055
2055
2046
2028
2003
1967
1923
1883
1840
1808
1791
1771
1759
1745
1744
1740
1745
1745
1750
1756
1749
1751
1752
1762
1766
1773
1780
1777
1787
1791
1799
1805
1808
1803
1815
1815
1818
1824
1828
1839
1835
1831
1832
1837
1831
1833
1837
1843
1846
1840
1838
1839
1841
1849
1856
1858
1859
1857
1861
1855
1856
1866
1869
1865
1904
1879
1879
1902
1920
1937
1942
1938
1950
1968
1947
1920
1907
1904
1910
1897
1872
1857
1857
1858
1870
1859
1862
1872
1873
1877
1878
1885
1910
2018
2219
2605
2893
2706
2306
2060
1879
1745
1733
1766
1802
1840
1856
1859
1859
1854
1856
1872
1887
1888
1893
1904
1914
1934
1936
1941
1951
1968
1973
1974
2001
2023
2042
2059
2063
2074
2085
2083
2090
2080
2054
2026
1987
1936
1900
1871
1850
1829
1808
1798
1797
1782
1783
1793
1791
1792
1792
1807
1808
1808
1817
1825
1823
1829
1838
1844
1847
1855
1850
1855
1847
1856
1857
1866
1859
1866
1858
1855
1857
1859
1855
1858
1865
1860
1857
1856
1859
1861
1866
1860
1861
1863
1861
1865
1872
1872
1877
1893
1904
1927
1947
1962
1966
1994
1995
1974
1931
1933
1921
1862
1876
1869
1858
1855
1855
1856
1859
1857
1857
1861
1863
1867
1870
1885
1925
2023
2256
2742
2943
2707
2265
1955
1792
1717
1724
1787
1827
1842
1857
1869
1868
1873
1876
1891
1897
1905
1904
1919
1929
1950
1961
1968
1983
1998
2011
2031
2091
2064
2087
2094
2103
2110
2115
2122
2119
2099
2070
2032
1985
1949
1919
1874
1850
1840
1827
1815
1808
1808
1809
1808
1808
1808
1803
1806
1808
1808
1824
1827
1830
1826
1834
1840
1843
1856
1851
1863
1867
1869
1872
1870
1872
1862
1857
1870
1866
1870
1872
1871
1870
1872
1871
1867
1871
1873
1872
1874
1872
1877
1890
1889
1889
1892
1893
1887
1882
1899
1901
1825
1894
1904
1951
1959
1973
1990
1985
1983
1985
1994
1969
1941
1931
1922
1913
1886
1884
1872
1877
1882
1880
1886
1886
1890
1890
1893
1902
1922
1985
2130
2448
2939
2999
2611
2157
1886
1776
1735
1776
1827
1855
1868
1874
1874
1884
1885
1904
1906
1911
1915
1922
1936
1942
1950
1961
1969
1988
2003
2021
2035
2058
2073
2086
2107
2118
2122
2126
2124
2114
2097
2071
2017
1982
1930
1898
1863
1842
1830
1819
1811
1805
1801
1801
1808
1806
1805
1812
1813
1808
1815
1813
1814
1824
1835
1840
1849
1847
1853
1862
1869
1863
1857
1857
1865
1867
1872
1873
1869
1868
1835
1870
1872
1873
1871
1867
1866
1861
1872
1875
1872
1869
1872
1873
1872
1877
1884
1884
1875
1878
1881
1889
1888
1878
1875
1886
1904
1927
1951
1948
1943
1966
1975
1954
1936
1921
1918
1915
1901
1885
1881
1866
1874
1872
1872
1880
1875
1873
1847
1890
1903
1920
1997
2165
2576
2863
2736
2383
2099
1909
1776
1721
1731
1791
1840
1852
1861
1865
1867
1837
1882
1890
1904
1914
1915
1925
1936
1937
1952
1968
1975
1982
2023
2003
2015
2039
2064
2070
2081
2081
2077
2081
2074
2058
2022
1987
1942
1910
1886
1862
1840
1822
1804
1793
1792
1787
1783
1793
1792
1794
1802
1808
1809
1809
1810
1820
1819
1822
1819
1819
1830
1834
1840
1840
1847
1851
1847
1844
1839
1843
1840
1837
1838
1840
1840
1835
1829
1830
1831
1824
1830
1826
1818
1825
1810
1815
1821
1823
1825
1824
1835
1857
1879
1894
1895
1911
1933
1937
1917
1887
1865
1842
1823
1796
1783
1775
1769
1771
1767
1765
1771
1774
1777
1776
1782
1787
1805
1877
2041
2381
2781
2793
2367
1997
1794
1659
1610
1669
1712
1740
1763
1765
1776
1779
1787
1792
1797
1808
1816
1831
1841
1845
1865
1872
1885
1899
1921
1936
1960
1974
2001
2010
2025
2030
2043
2039
2042
2035
2023
1995
1950
1904
1856
1823
1793
1776
1765
1751
1750
1743
1738
1744
1751
1748
1750
1755
1759
1765
1775
1778
1785
1791
1801
1802
1803
1808
1814
1822
1822
1831
1831
1836
1840
1839
1840
1841
1840
1840
1852
1845
1859
1856
1849
1856
1859
1856
1858
1860
1863
1868
1873
1875
1872
1877
1874
1881
1882
1879
1883
1888
1897
1893
1906
1923
1952
1970
1981
1972
1968
1981
1973
1943
1920
1925
1916
1904
1894
1881
1878
1882
1885
1886
1885
1890
1895
1895
1898
1910
1936
2005
2229
2653
3011
2960
2417
2033
1871
1773
1760
1808
1850
1876
1881
1881
1891
1897
1907
1920
1921
1927
1938
1947
1953
1967
1984
1994
2006
2019
2041
2061
2079
2102
2117
2135
2148
2149
2161
2164
2165
2157
2124
2096
2060
2015
1970
1936
1904
1883
1859
1862
1853
1853
1847
1854
1862
1857
1862
1862
1871
1869
1873
1874
1886
1890
1894
1903
1911
1910
1917
1924
1923
1926
1927
1921
1927
1936
1933
1932
1888
1922
1932
1933
1926
1927
1925
1925
1927
1920
1927
1927
1930
1931
1930
1933
1931
1936
1936
1935
1936
1936
1936
1936
1939
1941
1941
1941
1946
1949
1968
1995
2007
2021
2010
2013
2031
2021
1989
1969
1957
1965
1950
1924
1915
1917
1917
1920
1918
1923
1923
1927
1933
1931
1943
1973
2045
2234
2705
3050
2960
2486
2054
1877
1787
1773
1814
1861
1875
1885
1889
1898
1897
1904
1920
1918
1923
1939
1949
1952
1968
1954
1985
1993
2006
2021
2043
2061
2077
2096
2112
2119
2128
2141
2141
2139
2126
2103
2062
2019
1975
1936
1898
1872
1849
1834
1821
1815
1809
1808
1808
1808
1808
1810
1811
1817
1824
1823
1830
1839
1839
1842
1844
1853
1856
1863
1866
1867
1872
1875
1872
1877
1884
1873
1876
1872
1871
1870
1873
1872
1879
1878
1874
1876
1869
1869
1870
1875
1879
1872
1875
1874
1873
1879
1885
1879
1881
1881
1883
1886
1884
1887
1890
1893
1886
1892
1887
1892
1903
1923
1957
1960
1959
1950
1959
1968
1943
1920
1911
1907
1904
1881
1863
1863
1872
1872
1866
1862
1872
1872
1872
1872
1877
1900
1970
2128
2465
2858
2859
2453
2098
1894
1749
1712
1747
1804
1835
1845
1850
1847
1851
1858
1865
1869
1877
1888
1902
1904
1919
1927
1936
1952
1962
1979
1999
2009
2032
2047
2064
2078
2088
2091
2096
2100
2091
2069
2032
1995
1959
1923
1873
1851
1819
1802
1792
1791
1783
1778
1776
1776
1776
1779
1790
1794
1795
1802
1809
1809
1811
1822
1827
1826
1825
1837
1851
1852
1851
1847
1855
1854
1849
1849
1860
1857
1855
1850
1857
1859
1859
1849
1853
1855
1860
1852
1845
1854
1854
1855
1856
1858
1859
1856
1859
1857
1869
1867
1865
1869
1866
1869
1875
1888
1914
1930
1935
1931
1936
1946
1930
1909
1894
1893
1885
1868
1852
1841
1840
1841
1840
1849
1851
1846
1849
1856
1853
1868
1926
2046
2320
2719
2818
2515
2177
1965
1767
1679
1680
1779
1786
1808
1813
1822
1837
1834
1839
1846
1856
1854
1871
1870
1883
1895
1905
1908
1909
1933
1951
1962
1985
2000
2014
2032
2007
2046
2052
2045
2034
2019
2000
1967
1917
1878
1839
1808
1786
1761
1746
1737
1728
1719
1723
1717
1727
1725
1729
1728
1738
1735
1741
1748
1750
1761
1762
1762
1763
1767
1776
1781
1781
1794
1792
1783
1782
1793
1776
1792
1794
1792
1791
1791
1790
1794
1791
1791
1789
1798
1795
1792
1793
1794
1793
1789
1791
1793
1801
1795
1794
1801
1805
1797
1804
1803
1805
1809
1808
1808
1806
1808
1819
1839
1867
1889
1886
1884
1892
1902
1894
1869
1840
1850
1840
1821
1805
1799
1795
1792
1801
1803
1806
1805
1818
1815
1808
1810
1862
1973
2282
2723
2959
2730
2157
1873
1744
1671
1683
1739
1775
1787
1797
1805
1811
1828
1830
1831
1840
1847
1862
1864
1874
1891
1907
1917
1931
1937
1959
1988
2000
2016
2037
2058
2071
2080
2082
2094
2093
2067
2034
2002
1969
1930
1887
1858
1836
1809
1791
1781
1781
1779
1777
1781
1783
1783
1782
1788
1792
1792
1806
1814
1819
1828
1829
1827
1840
1840
1842
1851
1856
1856
1856
1862
1861
1862
1870
1869
1866
1872
1872
1870
1872
1871
1872
1874
1872
1877
1876
1883
1873
1873
1886
1889
1885
1889
1888
1891
1893
1894
1893
1894
1901
1901
1895
1904
1904
1904
1904
1910
1904
1910
1918
1919
1920
1927
1953
1978
1994
1985
1982
1994
2000
1984
1955
1938
1937
1931
1906
1895
1888
1891
1893
1894
1902
1901
1903
1906
1904
1906
1939
2009
2178
2549
3007
2976
2527
2111
1873
1776
1747
1789
1837
1859
1867
1872
1885
1888
1891
1900
1907
1913
1924
1936
1941
1946
1957
1968
1981
1995
2003
2017
2038
2058
2074
2093
2111
2119
2122
2133
2125
2117
2105
2071
2027
1992
1946
1908
1907
1856
1831
1824
1809
1808
1808
1808
1808
1808
1812
1813
1813
1820
1819
1821
1830
1833
1837
1841
1855
1859
1860
1859
1867
1867
1873
1872
1870
1874
1866
1875
1872
1868
1865
1872
1878
1879
1875
1882
1878
1871
1872
1873
1889
1878
1882
1879
1879
1882
1885
1893
1890
1891
1899
1891
1895
1902
1894
1903
1904
1897
1894
1900
1899
1901
1899
1905
1900
1901
1910
1936
1968
1968
1954
1953
1970
1969
1943
1926
1923
1915
1903
1887
1874
1871
1874
1872
1872
1878
1886
1885
1886
1886
1881
1917
2019
2231
2639
2928
2743
2300
2005
1839
1718
1712
1762
1811
1840
1840
1856
1856
1870
1868
1872
1877
1883
1895
1913
1925
1934
1938
1940
1962
1971
1991
2007
2025
2039
2062
2083
2089
2096
2112
2117
2096
2082
2073
2047
2015
1959
1917
1882
1856
1833
1815
1807
1797
1788
1776
1779
1783
1791
1788
1788
1791
1801
1801
1796
1808
1822
1825
1823
1827
1830
1829
1834
1841
1837
1840
1838
1846
1853
1845
1844
1847
1857
1849
1845
1850
1850
1854
1853
1847
1841
1842
1845
1850
1855
1847
1855
1855
1851
1843
1851
1856
1852
1860
1855
1856
1866
1868
1863
1877
1902
1917
1933
1931
1951
1970
1971
1953
1920
1911
1905
1886
1859
1851
1840
1840
1840
1840
1845
1847
1850
1856
1856
1855
1861
1894
1977
2165
2618
2854
2686
2297
2015
1821
1693
1680
1725
1776
1805
1814
1825
1840
1846
1847
1860
1866
1871
1886
1892
1904
1904
1918
1930
1936
1951
1967
1983
2003
2022
2037
2063
2074
2081
2091
2097
2085
2074
2047
2007
1979
1938
1904
1861
1783
1810
1795
1789
1782
1771
1776
1786
1776
1776
1783
1786
1791
1806
1799
1800
1807
1807
1815
1820
1825
1829
1837
1839
1840
1840
1845
1842
1855
1847
1841
1843
1843
1844
1845
1856
1857
1854
1857
1859
1851
1854
1850
1848
1853
1855
1850
1857
1865
1861
1867
1862
1870
1891
1947
1872
1870
1875
1872
1853
1869
1873
1892
1885
1894
1915
1937
1961
1947
1946
1955
1966
1936
1911
1904
1899
1894
1875
1861
1850
1850
1847
1843
1856
1855
1862
1867
1872
1879
1901
1952
2126
2474
2901
3007
2547
2109
1879
1765
1712
1747
1805
1825
1840
1840
1845
1844
1858
1863
1867
1875
1887
1890
1903
1909
1924
1931
1941
1959
1971
1987
2007
2031
2042
2065
2075
2089
2096
2097
2097
2096
2081
2038
2002
1967
1920
1889
1854
1829
1808
1788
1783
1779
1775
1776
1776
1774
1777
1776
1783
1785
1783
1789
1792
1798
1803
1808
1814
1813
1823
1838
1834
1841
1845
1850
1849
1850
1851
1850
1850
1851
1847
1853
1852
1853
1853
1855
1850
1857
1856
1851
1856
1855
1855
1854
1857
1859
1863
1871
1873
1875
1875
1878
1885
1887
1879
1879
1879
1882
1879
1889
1885
1890
1895
1920
1938
1949
1945
1943
1954
1970
1950
1920
1904
1909
1900
1878
1860
1856
1853
1855
1859
1865
1867
1872
1872
1872
1879
1899
1949
2086
2448
2886
3019
2674
2134
1907
1779
1727
1755
1803
1829
1842
1845
1840
1849
1856
1856
1870
1879
1885
1894
1906
1920
1923
1939
1946
1962
1975
1994
2011
2035
2054
2064
2081
2096
2097
2109
2110
2107
2096
2067
2031
1984
1943
1890
1850
1833
1808
1791
1780
1783
1776
1776
1770
1776
1774
1775
1776
1778
1787
1790
1794
1797
1802
1808
1810
1818
1823
1830
1833
1829
1830
1836
1840
1841
1845
1841
1841
1842
1845
1853
1853
1853
1855
1857
1865
1862
1853
1866
1865
1865
1867
1858
1861
1869
1867
1863
1872
1867
1869
1873
1879
1873
1881
1885
1873
1870
1869
1875
1878
1877
1874
1885
1909
1927
1940
1936
1935
1949
1953
1927
1906
1904
1902
1888
1873
1872
1872
1867
1863
1862
1863
1872
1883
1882
1889
1889
1911
1990
2141
2523
2849
2795
2439
2112
1906
1763
1713
1743
1798
1829
1843
1859
1861
1856
1866
1874
1887
1888
1902
1905
1920
1927
1934
1933
1945
1967
1983
1990
1996
2010
2025
2038
2055
2069
2075
2076
2086
2082
2067
2033
2000
1963
1933
1883
1856
1847
1837
1814
1808
1792
1791
1782
1781
1777
1782
1790
1789
1790
1797
1805
1809
1819
1831
1847
1862
1859
1858
1868
1867
1871
1872
1875
1872
1869
1861
1867
1861
1867
1861
1857
1858
1862
1861
1861
1869
1872
1877
1875
1876
1874
1882
1879
1864
1862
1859
1860
1861
1856
1855
1861
1866
1872
1886
1919
1936
1952
1950
1968
1982
1973
1939
1904
1904
1893
1874
1853
1845
1840
1837
1840
1840
1840
1840
1840
1840
1843
1841
1850
1879
1963
2146
2604
2896
2768
2342
1982
1808
1691
1670
1724
1775
1794
1806
1808
1814
1835
1839
1847
1853
1856
1871
1872
1882
1897
1909
1921
1927
1944
1958
1974
1991
2013
2032
2053
2061
2071
2075
2075
2080
2063
2042
2010
1972
1931
1882
1840
1808
1786
1775
1761
1757
1751
1749
1751
1755
1751
1757
1765
1771
1773
1766
1773
1779
1785
1789
1792
1795
1805
1803
1810
1809
1813
1819
1821
1825
1826
1829
1835
1829
1824
1849
1831
1830
1829
1840
1838
1831
1840
1840
1835
1836
1838
1838
1840
1838
1835
1838
1840
1840
1837
1841
1847
1852
1851
1855
1855
1859
1862
1859
1871
1887
1914
1933
1947
1937
1935
1943
1940
1917
1851
1878
1888
1877
1858
1841
1837
1840
1840
1846
1856
1866
1870
1878
1886
1895
1920
1970
2160
2525
2927
2958
2467
2065
1858
1747
1718
1755
1797
1808
1807
1793
1795
1805
1818
1830
1840
1846
1848
1866
1871
1888
1913
1925
1935
1947
1966
1984
1994
2006
2026
2054
2067
2085
2094
2102
2105
2091
2071
2032
1999
1954
1904
1863
1840
1815
1795
1786
1775
1771
1777
1776
1776
1778
1776
1778
1785
1787
1791
1791
1797
1809
1817
1813
1821
1834
1829
1835
1835
1834
1830
1830
1830
1835
1840
1841
1847
1853
1867
1876
1887
1887
1899
1898
1895
1886
1887
1879
1877
1875
1876
1883
1888
1883
1888
1890
1884
1873
1856
1847
1840
1837
1839
1835
1840
1841
1859
1863
1872
1889
1930
1945
1938
1925
1927
1941
1940
1914
1894
1897
1901
1889
1872
1868
1871
1869
1876
1886
1886
1893
1890
1869
1868
1873
1907
1994
2221
2642
2960
2714
2281
1955
1785
1709
1715
1775
1814
1840
1840
1840
1850
1854
1866
1875
1872
1875
1886
1899
1911
1926
1935
1936
1948
1966
1971
1971
1995
2012
2041
2070
2087
2099
2106
2111
2106
2090
2061
2015
1959
1909
1862
1833
1792
1767
1762
1763
1760
1765
1767
1771
1776
1777
1769
1766
1776
1782
1775
1775
1781
1782
1787
1797
1799
1807
1818
1814
1815
1811
1808
1813
1817
1817
1820
1813
1807
1810
1822
1820
1824
1825
1819
1827
1830
1840
1842
1831
1840
1852
1857
1861
1866
1871
1872
1871
1872
1872
1872
1873
1903
1877
1874
1885
1909
1926
1943
1952
1950
1957
1969
1967
1936
1933
1929
1926
1909
1887
1879
1872
1882
1884
1885
1891
1903
1907
1909
1910
1920
1926
1966
2077
2366
2738
2883
2654
2289
2101
1907
1783
1759
1792
1850
1875
1886
1900
1906
1913
1931
1938
1943
1958
1971
1980
1984
1998
1997
2009
2023
2032
2041
2066
2087
2091
2109
2126
2134
2150
2161
2170
2165
2152
2138
2115
2087
2043
1978
1920
1868
1831
1808
1810
1811
1819
1822
1833
1841
1850
1847
1856
1863
1872
1881
1888
1901
1912
1930
1934
1938
1943
1951
1958
1968
1968
1973
1970
1979
1970
1968
1969
1971
1968
1968
1966
1959
1955
1953
1955
1967
1968
1968
1967
1967
1955
1946
1947
1947
1945
1951
1954
1954
1953
1959
1946
1952
1954
1954
1961
1966
1981
2013
2031
2035
2021
2025
2037
2019
1995
1984
1984
1995
1975
1951
1943
1936
1922
1913
1915
1920
1927
1943
1955
1947
1959
1989
2075
2271
2704
3126
2983
2478
2082
1889
1808
1798
1837
1883
1903
1907
1907
1914
1919
1921
1930
1935
1941
1952
1957
1971
1982
1984
1990
2009
2027
2034
2055
2074
2096
2107
2128
2139
2143
2157
2158
2154
2148
2134
2102
2053
2000
1967
1936
1896
1877
1859
1857
1843
1840
1838
1840
1846
1842
1839
1840
1840
1842
1835
1840
1840
1851
1865
1865
1873
1872
1874
1883
1883
1888
1887
1897
1904
1902
1904
1903
1895
1891
1887
1891
1845
1901
1897
1895
1886
1893
1889
1888
1890
1886
1891
1894
1895
1898
1895
1895
1895
1901
1895
1895
1895
1893
1888
1885
1888
1888
1919
1947
1967
1952
1945
1950
1973
1958
1931
1920
1922
1913
1891
1867
1863
1868
1871
1872
1873
1862
1889
1886
1824
1895
1908
1948
2074
2331
2777
3046
2766
2274
1966
1829
1742
1742
1793
1834
1850
1853
1857
1856
1871
1872
1885
1891
1889
1890
1890
1903
1909
1918
1923
1935
1942
1969
1985
2000
2016
2032
2043
2058
2064
2063
2066
2062
2053
2018
1985
1949
1900
1861
1835
1806
1776
1750
1749
1755
1746
1756
1753
1752
1750
1754
1762
1771
1776
1777
1781
1791
1803
1810
1801
1808
1808
1808
1809
1817
1814
1811
1813
1807
1808
1808
1815
1821
1813
1811
1805
1808
1822
1826
1825
1813
1813
1813
1818
1821
1825
1823
1831
1834
1829
1825
1829
1832
1811
1835
1835
1839
1829
1839
1841
1851
1846
1856
1866
1883
1898
1904
1909
1920
1918
1909
1893
1872
1877
1872
1866
1841
1835
1828
1827
1827
1826
1838
1843
1854
1851
1866
1872
1900
1985
2179
2549
2837
2683
2317
2096
1901
1738
1695
1723
1786
1822
1841
1843
1843
1842
1851
1859
1866
1871
1875
1883
1887
1900
1904
1913
1925
1945
1951
1958
1968
1984
2001
2015
2022
2037
2039
2047
2056
2042
2029
2007
1984
1951
1917
1898
1878
1859
1835
1814
1802
1794
1792
1795
1807
1814
1811
1819
1823
1819
1823
1837
1834
1837
1843
1851
1862
1858
1858
1847
1846
1847
1841
1794
1851
1840
1840
1841
1841
1835
1838
1838
1831
1831
1830
1838
1840
1829
1823
1834
1842
1849
1850
1853
1843
1833
1824
1817
1818
1826
1842
1867
1897
1914
1911
1920
1953
1955
1939
1925
1911
1900
1888
1872
1856
1855
1853
1853
1850
1854
1853
1862
1866
1877
1888
1897
1910
1983
2127
2438
2843
2896
2501
2099
1882
1734
1684
1721
1779
1824
1841
1846
1858
1856
1853
1844
1846
1863
1872
1874
1893
1904
1924
1945
1954
2030
1973
1989
2000
2011
2031
2053
2064
2075
2083
2086
2080
2067
2047
2011
1977
1922
1881
1841
1810
1781
1766
1758
1745
1747
1750
1757
1765
1769
1765
1765
1776
1776
1787
1795
1804
1823
1823
1827
1835
1839
1843
1841
1847
1859
1861
1869
1877
1875
1882
1873
1874
1872
1872
1872
1881
1879
1875
1872
1873
1875
1872
1874
1878
1879
1887
1881
1878
1870
1870
1870
1872
1873
1872
1872
1882
1885
1886
1889
1904
1935
1951
1965
1951
1968
1975
1968
1939
1915
1911
1903
1891
1863
1850
1831
1828
1827
1817
1824
1833
1843
1840
1840
1840
1856
1897
1990
2217
2719
2977
2788
2305
1927
1786
1710
1707
1761
1791
1810
1819
1831
1830
1840
1842
1844
1851
1860
1862
1866
1882
1895
1904
1907
1925
1937
1952
1971
1997
2019
2039
2064
2084
2091
2093
2096
2115
2096
2064
2030
1981
1936
1881
1841
1808
1795
1773
1767
1758
1755
1763
1767
1770
1760
1753
1761
1767
1771
1766
1771
1777
1789
1789
1802
1805
1813
1815
1819
1820
1820
1826
1835
1840
1839
1845
1856
1846
1843
1853
1853
1854
1859
1854
1860
1867
1858
1850
1856
1870
1874
1873
1877
1882
1883
1889
1891
1894
1897
1917
1937
1954
1955
1968
2010
2026
2011
1984
1961
1938
1917
1891
1865
1856
1854
1851
1854
1856
1856
1856
1856
1856
1852
1862
1883
1945
2089
2389
2823
2828
2489
2147
1894
1741
1676
1697
1761
1807
1821
1826
1831
1837
1845
1860
1866
1867
1876
1898
1891
1891
1906
1914
1930
1936
1950
1967
1986
2003
2019
2038
2047
2061
2069
2071
2070
2060
2038
2007
1971
1929
1886
1845
1809
1795
1776
1779
1754
1746
1750
1753
1748
1749
1757
1759
1758
1757
1771
1786
1792
1789
1793
1794
1801
1799
1805
1807
1811
1816
1818
1817
1813
1817
1823
1824
1825
1827
1821
1825
1830
1826
1833
1824
1829
1825
1829
1835
1840
1846
1846
1849
1851
1845
1847
1851
1854
1856
1856
1867
1903
1922
1948
1958
1972
1999
2007
1991
1947
1919
1909
1890
1867
1856
1844
1843
1843
1837
1838
1845
1846
1851
1854
1866
1872
1890
1945
2064
2432
2882
3041
2703
2125
1885
1774
1719
1767
1808
1837
1851
1853
1858
1866
1874
1883
1895
1900
1915
1925
1945
1953
1958
1961
1968
1987
2001
2013
2034
2063
2080
2097
2123
2128
2131
2143
2147
2139
2125
2096
