2063
2057
2039
2011
2031
2014
2010
2000
1991
1986
1981
1968
1961
1952
1944
1936
1926
1919
1911
1904
1894
1889
1878
1875
1869
1857
1840
1818
1799
1781
1778
1773
1763
1774
1776
1781
1782
1792
1794
1795
1811
1805
1809
1816
1810
1818
1823
1826
1830
1840
1831
1827
1833
1824
1833
1838
1837
1830
1839
1840
1837
1844
1847
1843
1836
1842
1847
1847
1850
1853
1854
1862
1890
1855
1856
1856
1858
1862
1867
1868
1869
1874
1872
1870
1874
1872
1879
1885
1880
1878
1889
1890
1884
1887
1895
1882
1886
1893
1890
1903
1921
1937
1936
1965
2001
2032
2059
2034
2000
1970
1936
1904
1889
1884
1877
1874
1880
1878
1883
1888
1893
1891
1890
1904
1885
1798
1744
1746
1934
2512
3223
3599
2970
2419
2121
1967
1936
1911
1891
1871
1867
1870
1863
1863
1871
1890
1893
1901
1918
1929
1936
1947
1950
1966
1981
1987
2002
2030
2043
2063
2091
2110
2128
2149
2176
2189
2204
2219
2220
2211
2188
2132
2085
2023
1974
1936
1911
1883
1872
1862
1860
1861
1861
1872
1862
1867
1837
1874
1885
1891
1893
1891
1902
1901
1902
1903
1906
1904
1909
1910
1909
1909
1917
1914
1920
1913
1907
1907
1909
1909
1907
1915
1914
1917
1934
1930
1920
1930
1934
1931
1921
1929
1926
1933
1939
1938
1937
1941
1936
1948
1935
1934
1930
1936
1947
1935
1936
1942
1936
1933
1934
1925
1924
1930
1929
1935
1936
1936
1931
1930
1924
1917
1919
1930
1933
1943
1953
1955
1972
2026
2059
2055
2023
1998
1967
1922
1895
1878
1872
1867
1866
1867
1867
1856
1853
1863
1867
1861
1868
1822
1728
1667
1717
1984
2538
3357
3291
2709
2309
1986
1872
1856
1828
1790
1776
1763
1755
1767
1770
1770
1776
1780
1777
1787
1799
1808
1822
1835
1833
1846
1867
1871
1885
1907
1921
1936
1967
1995
2007
2030
2047
2055
2068
2079
2065
2025
1979
1929
1872
1825
1789
1751
1731
1727
1710
1713
1712
1711
1711
1717
1717
1728
1728
1728
1755
1742
1744
1745
1773
1767
1758
1760
1710
1751
1758
1764
1773
1786
1782
1776
1780
1791
1781
1777
1783
1776
1787
1794
1799
1795
1806
1807
1802
1806
1813
1813
1817
1825
1820
1805
1822
1818
1819
1823
1824
1822
1828
1830
1826
1834
1833
1820
1822
1831
1827
1831
1834
1831
1819
1828
1833
1825
1842
1849
1842
1840
1840
1840
1845
1855
1840
1851
1864
1877
1878
1890
1893
1927
1973
1998
2000
1968
1939
1911
1872
1850
1840
1833
1833
1827
1826
1840
1840
1834
1840
1843
1835
1831
1766
1686
1658
1797
2197
2850
3469
3008
2515
2187
1943
1870
1855
1819
1805
1795
1789
1791
1789
1793
1795
1808
1814
1822
1826
1844
1842
1846
1861
1867
1881
1898
1910
1921
1942
1968
1986
2001
2030
2046
2070
2081
2096
2103
2074
2087
2051
1999
1918
1895
1860
1821
1779
1774
1768
1750
1763
1761
1758
1758
1760
1773
1776
1785
1787
1791
1795
1798
1792
1808
1817
1809
1818
1822
1826
1824
1830
1831
1827
1830
1836
1834
1840
1835
1830
1833
1839
1837
1842
1843
1846
1850
1849
1853
1853
1859
1855
1856
1866
1871
1870
1874
1868
1861
1865
1872
1868
1872
1872
1872
1875
1875
1873
1872
1882
1876
1875
1889
1884
1878
1889
1891
1889
1887
1897
1898
1899
1900
1899
1903
1910
1906
1927
1937
1942
1985
2027
2037
2030
1999
1977
1937
1910
1886
1878
1877
1877
1863
1865
1877
1868
1873
1879
1877
1873
1851
1773
1696
1706
1917
2401
3106
3490
2853
2421
2129
1941
1894
1871
1840
1812
1808
1808
1794
1812
1818
1813
1825
1826
1835
1845
1857
1858
1874
1885
1891
1898
1915
1927
1935
1961
1982
2000
2019
2036
2059
2075
2103
2114
2117
2119
2083
2035
1989
1934
1886
1846
1808
1778
1767
1759
1745
1747
1753
1753
1761
1767
1771
1776
1786
1779
1777
1789
1795
1799
1793
1800
1803
1809
1823
1810
1808
1819
1818
1818
1822
1828
1826
1836
1823
1833
1840
1845
1840
1846
1851
1837
1831
1854
1849
1856
1866
1868
1862
1872
1870
1862
1872
1874
1872
1867
1872
1870
1878
1883
1871
1872
1885
1874
1875
1880
1874
1872
1892
1888
1881
1883
1897
1889
1898
1900
1895
1894
1901
1899
1910
1936
1925
1931
1963
2000
2029
2032
2000
1965
1936
1907
1872
1857
1861
1850
1856
1856
1850
1846
1859
1856
1857
1859
1861
1806
1711
1665
1743
2064
2768
3411
3154
2658
2239
1989
1899
1872
1840
1818
1798
1791
1803
1801
1804
1808
1808
1808
1824
1830
1840
1850
1856
1858
1883
1893
1904
1914
1929
1947
1969
1991
2019
2032
2067
2080
2095
2112
2115
2115
2106
2066
2009
1957
1939
1855
1810
1795
1746
1748
1747
1762
1744
1745
1746
1748
1755
1762
1771
1764
1782
1789
1789
1792
1793
1793
1794
1799
1798
1799
1809
1811
1815
1824
1819
1815
1823
1819
1814
1822
1825
1835
1826
1827
1818
1821
1840
1831
1840
1838
1840
1839
1850
1853
1856
1862
1857
1856
1866
1870
1867
1862
1865
1861
1872
1858
1857
1858
1875
1874
1874
1870
1870
1873
1886
1882
1899
1923
1955
1984
2003
2001
1975
1938
1909
1877
1856
1845
1838
1840
1839
1837
1838
1840
1838
1835
1851
1848
1843
1777
1705
1697
1846
2246
2928
3257
2796
2455
2179
1968
1883
1862
1843
1851
1835
1831
1829
1829
1856
1872
1861
1861
1875
1887
1891
1909
1927
1929
1954
1962
1965
1994
2014
2029
2055
2082
2101
2127
2150
2167
2196
2205
2198
2193
2183
2140
2089
2033
1991
1964
1942
1920
1900
1888
1888
1898
1888
1885
1900
1904
1913
1921
1926
1930
1943
1947
1959
1963
1959
1957
1968
1979
1990
1991
1987
1983
1984
1984
1994
2000
2009
1995
1989
1991
1998
2007
2005
2000
2004
2016
2015
2015
2001
1999
2003
2033
2038
2032
2061
2079
2096
2128
2159
2148
2107
2080
2035
2006
1990
1978
1973
1967
1966
1963
1968
1961
1934
1969
1971
1954
1945
1902
1822
1774
1894
2169
2688
3290
3010
2619
2389
2153
1955
1923
1922
1904
1893
1878
1876
1872
1872
1879
1884
1897
1897
1895
1910
1907
1913
1924
1922
1936
1939
1947
1955
1984
2000
2019
2042
2064
2075
2092
2107
2112
2112
2103
2080
2025
1970
1918
1872
1840
1797
1779
1775
1765
1744
1745
1744
1741
1744
1760
1759
1757
1757
1762
1759
1767
1769
1760
1771
1771
1765
1770
1778
1778
1774
1780
1779
1776
1785
1777
1777
1775
1781
1742
1813
1772
1763
1770
1779
1781
1783
1783
1792
1792
1800
1802
1795
1795
1797
1803
1806
1812
1807
1813
1838
1840
1840
1856
1877
1917
1950
1953
1919
1879
1904
1803
1785
1777
1776
1769
1765
1770
1765
1766
1766
1770
1776
1774
1762
1742
1645
1585
1639
1873
2474
3149
3183
2647
2221
1963
1807
1770
1765
1744
1727
1723
1712
1717
1728
1729
1734
1744
1746
1750
1766
1776
1776
1783
1806
1812
1825
1840
1858
1875
1894
1908
1923
1963
1979
1989
2007
2022
2026
2027
2006
1968
1924
1869
1805
1755
1740
1715
1695
1684
1677
1678
1679
1680
1680
1683
1698
1701
1705
1708
1712
1715
1731
1727
1727
1743
1744
1744
1747
1750
1745
1759
1763
1767
1776
1783
1767
1779
1789
1788
1785
1798
1808
1797
1802
1803
1799
1799
1808
1809
1819
1824
1823
1831
1824
1824
1827
1836
1833
1835
1840
1842
1840
1846
1841
1847
1843
1849
1854
1849
1865
1856
1855
1861
1858
1858
1877
1885
1890
1902
1911
1945
1982
2007
1995
1971
1946
1915
1871
1853
1834
1830
1840
1840
1837
1840
1840
1840
1843
1850
1850
1842
1798
1705
1669
1756
2082
2670
3435
3151
2605
2242
1959
1875
1865
1840
1799
1795
1801
1790
1797
1808
1809
1808
1814
1824
1835
1841
1857
1857
1875
1886
1902
1915
1921
1937
1963
1984
2000
2021
2058
2069
2087
2105
2125
2128
2126
2115
2074
2023
1971
1920
1866
1827
1805
1782
1771
1758
1755
1725
1765
1771
1776
1776
1778
1792
1798
1799
1803
1806
1808
1813
1822
1820
1825
1830
1830
1837
1843
1837
1831
1842
1843
1840
1853
1842
1839
1840
1853
1845
1843
1854
1851
1849
1853
1861
1869
1870
1870
1861
1866
1874
1874
1875
1884
1885
1878
1887
1890
1886
1891
1889
1898
1890
1888
1890
1894
1894
1888
1897
1903
1898
1895
1902
1900
1891
1903
1905
1893
1904
1901
1904
1904
1904
1909
1930
1935
1936
1963
1986
2032
2046
2037
2003
1971
1948
1904
1875
1882
1878
1872
1872
1869
1855
1865
1870
1867
1866
1867
1851
1757
1699
1709
1831
2390
3054
3495
2966
2431
2123
1941
1869
1857
1831
1808
1795
1792
1807
1798
1807
1813
1815
1822
1833
1838
1842
1856
1871
1874
1882
1899
1903
1929
1946
1966
1982
2006
2030
2041
2065
2077
2093
2111
2117
2110
2087
2041
1990
1936
1883
1833
1803
1777
1760
1750
1757
1750
1746
1749
1750
1750
1761
1766
1767
1776
1776
1835
1776
1788
1789
1801
1813
1813
1807
1808
1809
1811
1817
1819
1808
1823
1827
1835
1835
1836
1824
1829
1828
1827
1838
1842
1841
1840
1840
1846
1847
1850
1847
1854
1859
1860
1853
1861
1858
1855
1855
1847
1851
1858
1871
1866
1857
1856
1861
1863
1877
1872
1863
1866
1863
1854
1855
1869
1885
1894
1913
1905
1921
1976
2002
2014
2000
1965
1922
1881
1847
1840
1845
1842
1840
1840
1840
1827
1829
1850
1844
1841
1838
1792
1712
1669
1717
2014
2540
3165
3126
2585
2305
2035
1859
1855
1839
1808
1781
1776
1789
1803
1793
1791
1803
1807
1806
1775
1857
1845
1845
1847
1850
1877
1895
1904
1909
1925
1939
1967
1993
2014
2032
2062
2081
2075
2079
2098
2089
2046
1997
1942
1904
1866
1821
1787
1773
1757
1744
1757
1772
1745
1749
1744
1751
1759
1771
1777
1779
1786
1791
1801
1808
1802
1801
1808
1811
1808
1819
1834
1827
1840
1840
1828
1829
1841
1844
1856
1859
1852
1853
1873
1869
1865
1887
1873
1877
1888
1887
1840
1889
1903
1907
1931
1936
1938
1961
2016
2042
2045
2027
1998
1971
1943
1926
1904
1885
1882
1886
1888
1899
1902
1901
1904
1855
1909
1923
1904
1814
1775
1781
1947
2351
2962
3357
2815
2503
2274
2039
1936
1932
1910
1910
1904
1909
1904
1911
1937
1918
1938
1941
1942
1942
1943
1955
1973
1974
1984
2002
2014
2022
2042
2069
2090
2113
2146
2147
2150
2163
2181
2187
2195
2177
2135
2095
2031
1983
1943
1904
1872
1857
1847
1839
1840
1837
1833
1831
1831
1840
1847
1854
1859
1850
1843
1869
1857
1856
1873
1872
1872
1879
1878
1872
1871
1870
1872
1877
1883
1877
1881
1871
1869
1881
1878
1875
1877
1882
1881
1887
1895
1895
1887
1894
1900
1891
1894
1901
1892
1909
1909
1911
1916
1930
1932
1936
1968
2003
2037
2042
2010
1990
1967
1921
1878
1870
1866
1862
1859
1856
1852
1859
1857
1862
1869
1876
1870
1853
1775
1699
1711
1903
2354
3015
3425
2864
2445
2158
1920
1873
1859
1841
1808
1808
1808
1808
1808
1815
1814
1826
1840
1851
1850
1857
1870
1882
1887
1901
1904
1919
1936
1955
1969
1989
2014
2029
2055
2078
2079
2099
2111
2102
2093
2060
1989
1937
1889
1839
1794
1775
1744
1729
1730
1730
1721
1733
1735
1733
1742
1744
1745
1751
1762
1750
1757
1766
1771
1765
1776
1781
1780
1788
1793
1787
1792
1799
1789
1798
1802
1798
1799
1795
1792
1795
1808
1801
1799
1808
1808
1804
1808
1808
1811
1818
1818
1816
1825
1823
1818
1818
1824
1822
1822
1831
1835
1834
1831
1840
1835
1840
1839
1830
1833
1840
1839
1840
1845
1845
1856
1872
1877
1878
1890
1920
1966
1993
1984
1951
1917
1898
1854
1824
1821
1821
1811
1808
1809
1815
1826
1821
1829
1835
1831
1818
1761
1681
1641
1734
2159
2788
3414
3119
2502
2160
1934
1855
1836
1810
1792
1775
1778
1776
1776
1789
1787
1794
1804
1808
1817
1831
1840
1851
1815
1872
1882
1875
1913
1926
1943
1961
1986
2065
2033
2061
2075
2094
2098
2102
2097
2094
2042
1989
1933
1882
1841
1810
1776
1747
1750
1751
1745
1744
1758
1755
1759
1766
1766
1763
1786
1792
1797
1776
1803
1807
1821
1777
1829
1831
1838
1839
1835
1840
1841
1845
1853
1849
1841
1846
1853
1851
1859
1847
1835
1851
1860
1857
1854
1865
1872
1867
1879
1873
1875
1875
1877
1877
1885
1888
1891
1893
1889
1887
1898
1899
1893
1901
1904
1904
1904
1904
1899
1895
1904
1910
1911
1905
1910
1897
1913
1914
1905
1925
1940
1936
1941
1967
2007
2039
2041
2022
1989
1962
1930
1895
1883
1884
1877
1872
1872
1866
1867
1872
1872
1872
1882
1880
1840
1761
1694
1714
2007
2571
3275
3434
2757
2337
2063
1930
1895
1872
1842
1822
1805
1808
1809
1815
1827
1841
1835
1846
1853
1856
1867
1878
1883
1898
1904
1917
1930
1956
1971
1979
2010
2035
2055
2075
2102
2119
2134
2143
2137
2123
2092
2033
1979
1933
1877
1840
1803
1791
1782
1776
1763
1771
1775
1780
1775
1785
1795
1789
1796
1808
1808
1808
1811
1821
1824
1835
1838
1824
1836
1833
1827
1834
1838
1841
1842
1843
1840
1839
1845
1840
1843
1847
1840
1843
1849
1857
1849
1856
1855
1861
1861
1865
1863
1867
1870
1872
1867
1872
1872
1873
1872
1873
1874
1875
1877
1871
1872
1881
1875
1873
1883
1878
1874
1891
1892
1882
1893
1893
1883
1887
1893
1891
1904
1916
1917
1926
1963
2000
2017
2029
1995
1969
1942
1906
1866
1858
1855
1842
1847
1845
1841
1840
1842
1845
1846
1857
1848
1792
1712
1665
1731
2034
2618
3306
3200
2659
2270
2002
1884
1858
1830
1808
1777
1778
1786
1785
1794
1807
1808
1806
1809
1823
1823
1840
1853
1860
1878
1893
1891
1904
1925
1936
1969
1987
2001
2026
2053
2077
2085
2107
2118
2118
2110
2093
2014
1964
1914
1809
1807
1781
1768
1751
1751
1757
1744
1749
1751
1755
1771
1762
1755
1765
1774
1772
1776
1787
1790
1791
1799
1793
1788
1793
1808
1798
1808
1807
1795
1797
1808
1806
1814
1829
1831
1813
1810
1808
1815
1830
1823
1776
1827
1831
1825
1837
1840
1839
1840
1840
1859
1869
1846
1841
1854
1853
1851
1860
1858
1856
1863
1872
1866
1866
1874
1875
1885
1894
1907
1934
1962
1997
2009
1981
1961
1933
1878
1853
1842
1843
1845
1844
1841
1839
1848
1855
1849
1837
1831
1839
1799
1712
1681
1762
2057
2557
3215
2960
2533
2285
2015
1870
1843
1865
1807
1797
1797
1796
1785
1798
1792
1799
1813
1840
1831
1830
1841
1843
1863
1886
1874
1890
1904
1910
1940
1962
1968
2000
2016
2032
2051
2069
2082
2079
2078
2067
2020
1979
1943
1888
1846
1811
1776
1746
1743
1744
1749
1749
1743
1742
1759
1757
1753
1762
1767
1775
1790
1783
1781
1787
1790
1803
1814
1820
1811
1808
1811
1815
1808
1805
1811
1813
1822
1821
1821
1823
1829
1827
1824
1827
1833
1829
1830
1855
1856
1847
1841
1845
1867
1882
1872
1887
1937
1971
1993
1995
1963
1936
1904
1856
1820
1822
1830
1813
1812
1827
1827
1817
1821
1826
1842
1840
1825
1793
1719
1687
1746
2009
2493
3097
3008
2576
2314
2094
1892
1837
1831
1823
1814
1799
1808
1807
1817
1827
1834
1825
1838
1842
1840
1855
1874
1872
1873
1904
1917
1922
1936
1957
1974
1993
2012
2030
2061
2087
2096
2106
2109
2095
2070
2034
1988
1920
1887
1855
1817
1803
1792
1777
1779
1771
1762
1775
1776
1776
1777
1790
1793
1794
1804
1808
1802
1815
1815
1807
1818
1831
1831
1835
1839
1836
1835
1842
1838
1829
1840
1831
1832
1840
1851
1839
1842
1847
1846
1856
1861
1860
1865
1870
1866
1866
1867
1857
1860
1867
1885
1897
1909
1916
1919
1973
2013
2022
2027
1984
1947
1914
1875
1815
1839
1841
1839
1840
1843
1830
1830
1838
1840
1840
1841
1842
1791
1705
1679
1729
2070
2641
3277
3120
2576
2262
2002
1871
1843
1823
1817
1806
1782
1789
1791
1795
1803
1813
1809
1830
1840
1840
1843
1858
1867
1872
1891
1904
1911
1933
1948
1968
1997
2015
2032
2064
2073
2085
2096
2112
2103
2073
2035
1984
1920
1875
1841
1803
1777
1768
1759
1754
1755
1742
1747
1759
1755
1768
1776
1775
1775
1779
1776
1778
1797
1798
1797
1806
1810
1808
1808
1813
1813
1815
1847
1815
1813
1827
1825
1824
1831
1828
1821
1828
1835
1834
1843
1843
1845
1842
1845
1855
1849
1845
1853
1849
1855
1858
1855
1866
1866
1861
1870
1871
1856
1861
1872
1872
1874
1882
1887
1895
1904
1921
1956
2000
2018
2000
1969
1946
1904
1879
1846
1840
1836
1840
1829
1830
1840
1840
1840
1842
1842
1843
1837
1783
1685
1647
1742
2077
2794
3435
3153
2605
2181
1939
1860
1851
1826
1795
1792
1786
1785
1791
1797
1797
1810
1822
1821
1819
1831
1840
1845
1856
1872
1879
1901
1911
1925
1941
1968
1982
2015
2034
2039
2067
2087
2102
2107
2110
2080
2039
1986
1935
1875
1841
1803
1776
1751
1744
1738
1744
1744
1741
1739
1747
1755
1759
1769
1763
1763
1773
1773
1775
1782
1783
1786
1789
1795
1802
1808
1808
1808
1802
1807
1807
1797
1808
1803
1803
1808
1807
1808
1809
1812
1815
1822
1826
1819
1822
1839
1838
1828
1846
1843
1840
1843
1843
1831
1853
1853
1843
1838
1845
1838
1840
1843
1839
1842
1847
1845
1840
1847
1845
1844
1858
1872
1871
1870
1899
1946
1970
1982
1953
1921
1897
1855
1810
1802
1797
1793
1805
1806
1798
1807
1808
1806
1808
1815
1817
1792
1713
1643
1648
1882
2388
3078
3437
2791
2336
2033
1873
1830
1819
1793
1773
1764
1762
1769
1769
1778
1788
1786
1806
1822
1814
1835
1839
1851
1870
1879
1881
1904
1919
1936
1954
1979
2031
2023
2059
2078
2131
2111
2128
2131
2119
2096
2047
1991
1944
1885
1848
1818
1802
1792
1792
1777
1778
1793
1798
1801
1809
1814
1818
1834
1840
1838
1852
1867
1857
1872
1874
1874
1883
1891
1895
1894
1901
1893
1903
1936
1914
1909
1915
1920
1914
1922
1936
1933
1924
1927
1929
1927
1944
1953
1947
1955
1959
1947
1950
1957
1966
1967
1973
1962
1965
1971
1977
1974
1967
1967
1966
1976
1975
1983
1982
1981
1968
1972
1981
1988
2000
2001
2001
2011
2043
2084
2105
2125
2111
2071
2038
1994
1966
1954
1938
1926
1936
1946
1949
1950
1951
1936
1930
1936
1946
1920
1859
1792
1793
1970
2410
3179
3413
2871
2501
2192
2004
1951
1937
1927
1907
1887
1889
1902
1898
1915
1910
1904
1919
1929
1926
1938
1951
1956
1969
1994
1991
1997
2013
2032
2044
2075
2090
2110
2142
2159
2167
2182
2204
2199
2191
2159
2112
2052
2015
1958
1911
1882
1855
1834
1833
1839
1819
1826
1834
1821
1827
1841
1840
1840
1844
1831
1840
1843
1857
1860
1873
1875
1867
1871
1872
1871
1858
1865
1861
1858
1872
1871
1862
1868
1872
1870
1869
1867
1866
1879
1874
1875
1879
1883
1867
1875
1883
1894
1904
1920
1925
1924
1965
1999
2026
2022
2000
1968
1937
1901
1872
1863
1865
1853
1845
1852
1856
1852
1851
1851
1856
1857
1859
1839
1763
1705
1725
1930
2365
3058
3198
2705
2403
2129
1927
1849
1840
1839
1834
1813
1808
1810
1810
1820
1831
1836
1835
1840
1834
1851
1857
1872
1867
1888
1896
1904
1917
1942
1958
1983
2000
2013
2033
2056
2064
2074
2082
2074
2061
2019
1977
1927
1883
1840
1803
1774
1764
1743
1742
1742
1733
1735
1744
1747
1745
1748
1753
1747
1757
1761
1751
1767
1771
1776
1778
1792
1782
1810
1796
1791
1794
1808
1802
1802
1805
1798
1804
1808
1808
1807
1810
1815
1816
1823
1826
1825
1837
1839
1839
1833
1841
1841
1859
1877
1883
1891
1920
1967
1990
2000
1979
1946
1919
1872
1842
1819
1824
1817
1810
1815
1815
1809
1821
1822
1821
1816
1829
1811
1759
1682
1653
1761
2078
2818
3375
3031
2527
2162
1920
1840
1781
1810
1787
1777
1776
1779
1781
1782
1794
1801
1806
1813
1821
1829
1840
1854
1856
1871
1881
1899
1910
1927
1943
1959
1984
2006
2032
2052
2062
2077
2098
2094
2078
2053
2010
1946
1906
1849
1808
1788
1775
1745
1746
1740
1742
1746
1751
1759
1759
1757
1765
1771
1779
1791
1791
1805
1809
1798
1802
1807
1808
1809
1815
1822
1821
1822
1827
1825
1830
1834
1830
1834
1840
1839
1840
1838
1827
1840
1841
1839
1847
1855
1852
1854
1857
1861
1859
1864
1872
1867
1872
1868
1866
1867
1867
1866
1870
1879
1874
1873
1884
1877
1875
1882
1895
1905
1922
1925
1930
1975
2015
2014
2010
1980
1943
1913
1882
1861
1856
1849
1852
1842
1840
1850
1849
1856
1855
1856
1872
1856
1781
1703
1669
1794
2182
2829
3463
3052
2528
2189
1954
1889
1869
1832
1817
1807
1795
1791
1792
1798
1802
1825
1827
1824
1842
1843
1855
1869
1881
1886
1899
1921
1926
1937
1968
1982
1998
2026
2046
2075
2099
2112
2125
2131
2132
2111
2070
2017
1966
1918
1873
1831
1808
1797
1786
1776
1778
1779
1786
1796
1795
1796
1807
1808
1815
1823
1837
1840
1838
1845
1839
1856
1862
1861
1856
1866
1862
1857
1867
1870
1869
1875
1872
1872
1874
1885
1885
1888
1897
1891
1894
1903
1899
1901
1905
1907
1906
1915
1918
1919
1919
1927
1923
1930
1926
1919
1929
1932
1930
1929
1936
1928
1923
1923
1934
1936
1931
1936
1927
1948
1955
1953
1968
1984
2018
2058
2083
2071
2035
2017
1984
1937
1920
1907
1904
1901
1904
1897
1896
1902
1902
1901
1902
1903
1903
1854
1767
1715
1789
2098
2686
3504
3275
2704
2307
2013
1924
1906
1872
1846
1834
1835
1831
1825
1827
1830
1834
1849
1845
1851
1859
1867
1878
1889
1904
1906
1921
1937
1950
1961
1987
2007
2032
2053
2070
2078
2101
2112
2115
2121
2109
2064
2012
1955
1906
1856
1828
1799
1777
1763
1765
1755
1751
1761
1762
1766
1776
1776
1779
1789
1777
1779
1791
1792
1797
1810
1808
1810
1818
1818
1808
1818
1821
1818
1829
1837
1821
1826
1830
1827
1839
1835
1826
1831
1837
1839
1840
1849
1846
1835
1835
1847
1840
1847
1856
1838
1840
1849
1856
1856
1866
1843
1839
1846
1843
1840
1842
1856
1856
1851
1855
1845
1847
1862
1863
1851
1857
1853
1856
1872
1883
1892
1911
1947
1970
2002
1983
1947
1918
1899
1856
1831
1840
1830
1821
1825
1828
1812
1815
1830
1840
1839
1830
1797
1729
1665
1674
1814
2204
2909
3248
2783
2430
2111
1904
1839
1827
1807
1791
1776
1765
1771
1776
1787
1792
1802
1808
1823
1815
1808
1822
1837
1841
1856
1877
1887
1899
1936
1936
1950
1967
1990
2010
2032
2053
2065
2082
2096
2079
2058
2017
1977
1936
1883
1836
1808
1792
1769
1771
1769
1758
1744
1755
1774
1787
1777
1785
1785
1792
1787
1791
1806
1808
1799
1808
1824
1835
1829
1827
1839
1838
1835
1836
1830
1830
1837
1839
1838
1846
1842
1850
1856
1847
1856
1861
1859
1850
1859
1872
1867
1877
1882
1893
1914
1936
1973
2000
2009
2002
1977
1945
1914
1875
1863
1850
1851
1862
1854
1840
1856
1850
1838
1846
1860
1856
1857
1806
1735
1701
1799
2096
2640
3184
2935
2537
2291
2071
1871
1856
1857
1836
1828
1847
1823
1799
1829
1839
1852
1856
1856
1862
1890
1881
1876
1898
1909
1920
1933
1941
1953
1979
1989
2007
2028
2058
2073
2083
2093
2098
2112
2102
2078
2028
1983
1938
1895
1854
1818
1791
1778
1783
1776
1762
1774
1770
1776
1783
1781
1774
1776
1786
1785
1804
1796
1802
1804
1814
1801
1821
1826
1822
1822
1828
1825
1826
1830
1814
1843
1819
1827
1827
1827
1830
1829
1831
1840
1833
1840
1850
1855
1840
1853
1852
1853
1859
1857
1856
1869
1879
1887
1901
1916
1926
1975
2003
2002
1991
1969
1936
1902
1865
1851
1840
1843
1845
1830
1835
1834
1837
1835
1841
1841
1849
1842
1772
1680
1664
1799
2171
2789
3386
2951
2511
2209
1953
1859
1842
1822
1803
1789
1789
1789
1793
1798
1795
1811
1817
1827
1830
1842
1842
1861
1865
1872
1879
1904
1919
1928
1947
1969
1984
2006
2032
2054
2071
2088
2098
2108
2101
2064
2016
1964
1919
1870
1840
1796
1774
1776
1770
1750
1751
1761
1765
1738
1771
1759
1771
1778
1799
1793
1795
1799
1808
1817
1813
1819
1824
1831
1830
1830
1858
1832
1837
1840
1835
1837
1841
1842
1845
1850
1840
1841
1854
1850
1854
1870
1869
1866
1867
1867
1870
1867
1878
1872
1872
1878
1877
1878
1886
1877
1879
1891
1890
1886
1890
1903
1890
1891
1896
1893
1897
1904
1901
1905
1904
1904
1902
1915
1917
1926
1936
1937
1946
1985
2028
2037
2032
2007
1978
1943
1906
1872
1872
1873
1869
1872
1872
1871
1866
1869
1875
1877
1884
1882
1814
1726
1685
1775
2097
2814
3465
3211
2642
2214
1968
1890
1872
1837
1826
1805
1793
1796
1798
1803
1804
1807
1811
1818
1830
1829
1837
1855
1866
1872
1883
1895
1904
1920
1938
1953
1971
2000
2017
2032
2053
2068
2080
2099
2096
2074
2037
1995
1937
1883
1840
1795
1776
1753
1741
1728
1731
1723
1726
1731
1731
1743
1749
1754
1754
1767
1765
1763
1765
1776
1772
1776
1779
1789
1791
1799
1798
1799
1810
1809
1805
1773
1809
1807
1807
1808
1807
1813
1829
1819
1825
1830
1827
1823
1829
1830
1833
1849
1851
1840
1856
1856
1851
1856
1859
1855
1847
1856
1859
1859
1871
1867
1867
1872
1870
1856
1874
1871
1872
1878
1883
1879
1894
1885
1941
1883
1890
1891
1888
1899
1899
1901
1904
1904
1919
1909
1917
1920
1927
1936
1958
2007
2035
2036
2015
1987
1950
1915
1895
1872
1867
1875
1872
1863
1861
1870
1867
1871
1872
1870
1863
1821
1739
1673
1718
2034
2615
3341
3403
2704
2307
2032
1910
1879
1856
1824
1808
1805
1802
1793
1810
1809
1814
1830
1835
1839
1841
1862
1865
1879
1887
1901
1911
1927
1943
1957
1987
2005
2018
2047
2070
2082
2111
2113
2127
2128
2123
2093
2055
2001
1946
1900
1867
1828
1799
1791
1787
1776
1776
1774
1773
1777
1783
1786
1792
1797
1804
1808
1817
1817
1824
1827
1826
1828
1837
1835
1839
1840
1845
1838
1843
1855
1847
1850
1833
1840
1850
1865
1919
1866
1863
1865
1850
1863
1871
1875
1885
1881
1876
1880
1884
1885
1890
1898
1897
1904
1907
1899
1894
1910
1910
1911
1915
1910
1910
1916
1920
1916
1924
1930
1918
1920
1919
1919
1936
1936
1939
1943
1947
1945
1946
1973
2016
2047
2070
2061
2019
1992
1959
1921
1902
1901
1894
1873
1893
1896
1886
1879
1885
1875
1874
1886
1871
1782
1728
1730
1921
2469
3115
3302
2794
2396
2128
1943
1901
1890
1869
1840
1820
1829
1826
1822
1833
1847
1849
1858
1867
1878
1885
1889
1876
1899
1915
1930
1927
1953
1964
1991
2014
2028
2047
2073
2095
2106
2114
2128
2135
2123
2101
2062
2001
1949
1909
1862
1829
1797
1792
1793
1782
1778
1786
1847
1779
1787
1809
1804
1795
1807
1817
1811
1822
1827
1829
1842
1843
1837
1839
1850
1855
1859
1853
1845
1853
1854
1856
1861
1844
1872
1857
1858
1867
1863
1863
1878
1875
1856
1891
1899
1899
1897
1904
1925
1882
1926
1937
1995
2034
2032
2021
1980
1954
1910
1889
1879
1867
1872
1864
1865
1873
1874
1871
1858
1871
1875
1889
1872
1792
1714
1737
1886
2285
2993
3286
2796
2473
2195
1968
1884
1883
1863
1857
1857
1856
1854
1857
1846
1852
1875
1882
1872
1881
1879
1886
1903
1913
1909
1935
1950
1963
1969
1984
1990
2014
2051
2064
2093
2114
2113
2112
2124
2107
2067
2023
1983
1930
1881
1845
1817
1797
1786
1778
1784
1786
1781
1791
1790
1794
1793
1803
1808
1813
1819
1833
1830
1834
1837
1829
1840
1847
1835
1845
1857
1856
1854
1858
1858
1839
1856
1861
1847
1858
1862
1865
1872
1872
1886
1866
1873
1882
1871
1872
1879
1873
1889
1904
1904
1911
1916
1951
1998
2027
2019
1999
1968
1934
1887
1872
1855
1847
1860
1857
1851
1850
1853
1858
1871
1873
1869
1872
1856
1763
1707
1727
1930
2395
3181
3329
2779
2433
2131
1929
1882
1873
1851
1841
1837
1835
1840
1848
1849
1853
1856
1855
1856
1870
1882
1885
1905
1920
1930
1943
1959
1970
1989
2011
2022
2046
2067
2078
2096
2112
2123
2128
2129
2115
2064
2029
1968
1923
1882
1850
1813
1797
1795
1790
1779
1791
1796
1797
1808
1810
1810
1811
1819
1821
1835
1840
1839
1838
1851
1847
1854
1853
1854
1856
1859
1858
1850
1856
1857
1861
1861
1865
1856
1856
1856
1859
1865
1872
1868
1873
1874
1872
1873
1878
1877
1876
1883
1892
1895
1891
1892
1890
1892
1895
1909
1922
1931
1927
1962
2007
2042
2031
2004
1982
1939
1904
1870
1853
1849
1855
1844
1844
1854
1848
1841
1857
1851
1855
1866
1835
1739
1680
1700
1909
2407
3106
3457
2843
2384
2075
1888
1868
1843
1812
1791
1782
1776
1790
1789
1790
1797
1812
1814
1811
1835
1829
1840
1858
1866
1867
1889
1904
1914
1930
1953
1978
2000
2021
2037
2064
2085
2094
2107
2114
2098
2035
2013
1957
1911
1872
1826
1795
1776
1770
1759
1757
1766
1761
1767
1777
1777
1786
1792
1798
1807
1817
1811
1811
1822
1827
1835
1833
1843
1850
1840
1856
1851
1851
1863
1863
1863
1874
1865
1863
1872
1875
1874
1886
1902
1897
1902
1909
1908
1909
1915
1913
1918
1928
1923
1931
1933
1925
1937
1936
1946
1942
1945
1953
1946
1943
1969
1979
2000
2001
2032
2067
2096
2116
2089
2058
2035
1997
1968
1952
1946
1949
1955
1952
1949
1954
1952
1961
1970
1970
1982
1972
1902
1827
1797
1937
2366
3056
3755
3152
2630
2291
2045
1995
1981
1957
1929
1917
1912
1909
1924
1926
1926
1931
1938
1935
1946
1963
1969
2029
1978
1982
1968
2029
2034
2053
2080
2099
2106
2130
2161
2177
2187
2207
2211
2224
2222
2189
2130
2081
2019
1968
1936
1903
1872
1866
1848
1846
1842
1850
1853
1853
1858
1859
1862
1858
1856
1856
1874
1886
1887
1882
1885
1877
1887
1886
1898
1930
1894
1935
1883
1881
1893
1903
1895
1893
1890
1889
1895
1879
1890
1904
1897
1902
1894
1887
1878
1886
1887
1885
1891
1891
1885
1897
1891
1874
1897
1903
1907
1922
1934
1925
1929
1969
2002
2025
2031
2007
1968
1936
1888
1869
1865
1863
1852
1853
1840
1834
1856
1866
1855
1847
1847
1845
1812
1754
1711
1750
1993
2451
3127
3065
2608
2335
2066
1872
1824
1827
1813
1798
1807
1809
1790
1791
1799
1808
1813
1837
1837
1830
1840
1841
1843
1863
1872
1872
1920
1913
1916
1948
1963
1974
2000
2026
2033
2031
2053
2069
2066
2053
2000
1965
1926
1886
1822
1797
1770
1738
1732
1737
1727
1726
1735
1744
1746
1741
1742
1746
1753
1751
1755
1761
1775
1758
1767
1775
1778
1776
1802
1785
1771
1782
1786
1791
1789
1790
1783
1792
1794
1790
1792
1803
1804
1807
1807
1789
1791
1808
1808
1814
1837
1850
1840
1860
1914
1937
1955
1926
1898
1874
1841
1808
1780
1787
1777
1775
1731
1763
1769
1775
1783
1789
1756
1779
1776
1730
1643
1610
1680
1974
2574
3133
2945
2502
2202
1970
1813
1776
1776
1784
1774
1765
1776
1767
1776
1783
1781
1792
1798
1809
1808
1825
1828
1845
1856
1865
1866
1872
1898
1909
1935
1953
1968
1993
2019
2032
2043
2064
2064
2053
2021
1989
1935
1883
1837
1798
1776
1759
1745
1742
1744
1731
1740
1744
1825
1744
1755
1761
1755
1767
1776
1771
1776
1795
1791
1795
1803
1802
1804
1811
1813
1811
1818
1823
1822
1834
1840
1831
1833
1831
1835
1845
1847
1844
1845
1850
1854
1858
1872
1872
1873
1883
1879
1887
1888
1895
1889
1889
1898
1891
1835
1906
1904
1904
1887
1917
1909
1919
1935
1936
1954
1946
1966
2011
2061
2071
2047
2023
1990
1961
1917
1895
1888
1898
1890
1889
1891
1886
1888
1886
1901
1898
1898
1891
1825
1745
1726
1856
2237
2867
3549
3063
2558
2224
1957
1911
1895
1866
1853
1840
1831
1827
1838
1839
1845
1854
1850
1863
1877
1884
1893
1895
1903
1915
1936
1947
1950
1970
1989
2006
2031
2053
2075
2099
2121
2131
2144
2160
2154
2113
2070
2022
1964
1921
1869
1845
1819
1806
1790
1777
1782
1794
1776
1782
1791
1790
1805
1802
1808
1805
1813
1807
1810
1823
1822
1817
1835
1830
1828
1810
1901
1839
1843
1833
1838
1815
1838
1834
1840
1839
1839
1839
1838
1835
1841
1844
1846
1840
1855
1853
1857
1860
1865
1864
1872
1863
1856
1867
1870
1862
1872
1876
1873
1870
1870
1867
1874
1875
1887
1875
1881
1879
1875
1889
1890
1883
1881
1894
1887
1879
1893
1890
1888
1897
1890
1894
1899
1899
1891
1898
1921
1923
1932
1935
1937
1971
2020
2029
2019
1991
1968
1936
1909
1878
1866
1872
1872
1854
1856
1866
1870
1872
1875
1870
1872
1865
1781
1711
1696
1824
2322
3009
3595
3102
2496
2160
1938
1901
1877
1835
1815
1808
1801
1802
1808
1813
1826
1831
1838
1840
1842
1850
1856
1871
1893
1898
1908
1926
1933
1949
1971
1994
2009
2035
2064
2076
2098
2112
2112
2126
2131
2112
2075
2021
1957
1915
1872
1834
1797
1785
1776
1775
1769
1766
1763
1771
1778
1794
1790
1799
1806
1810
1823
1830
1831
1835
1836
1829
1840
1840
1840
1842
1844
1852
1856
1867
1875
1861
1856
1851
1862
1826
1871
1869
1872
1872
1873
1878
1887
1879
1875
1887
1887
1898
1888
1889
1880
1895
1896
1890
1897
1901
1888
1902
1906
1899
1891
1890
1887
1897
1907
1894
1888
1899
1905
1918
1907
1904
1901
1893
1901
1910
1920
1933
1936
1955
1997
2015
2031
2006
1984
1958
1933
1875
1861
1869
1869
1856
1862
1856
1858
1872
1857
1859
1865
1853
1819
1739
1694
1751
2010
2519
3218
3102
2611
2330
2058
1891
1851
1849
1828
1808
1802
1807
1811
1811
1826
1840
1827
1827
1840
1840
1835
1850
1872
1872
1891
1907
1919
1936
1955
1968
1984
2005
2017
2032
2061
2066
2082
2103
2109
2095
2061
2010
1963
1923
1881
1839
1805
1779
1771
1773
1775
1758
1765
1776
1771
1759
1788
1782
1777
1776
1790
1793
1805
1811
1810
1808
1811
1817
1816
1839
1839
1825
1836
1831
1817
1801
1831
1841
1846
1846
1831
1834
1833
1814
1850
1849
1844
1846
1851
1856
1855
1861
1875
1876
1891
1968
1942
1966
1994
2006
1978
1934
1894
1859
1846
1835
1829
1831
1829
1826
1823
1824
1823
1833
1829
1831
1845
1821
1735
1680
1721
1906
2352
2971
3166
2672
2374
2129
1875
1819
1822
1805
1783
1776
1774
1802
1789
1787
1794
1794
1808
1814
1818
1824
1840
1856
1867
1855
1846
1891
1902
1922
1940
1964
1979
2006
2015
2035
2061
2091
2080
2076
2046
2015
1959
1921
1866
1825
1794
1767
1751
1735
1728
1728
1739
1728
1734
1741
1744
1743
1750
1754
1759
1756
1775
1779
1782
1798
1788
1792
1808
1809
1809
1808
1805
1808
1822
1813
1813
1822
1826
1814
1819
1828
1827
1827
1826
1833
1834
1842
1852
1842
1856
1854
1855
1867
1860
1856
1866
1872
1865
1862
1875
1890
1897
1911
1915
1936
1988
2027
2021
2000
1955
1930
1902
1872
1853
1853
1858
1856
1849
1855
1843
1849
1856
1858
1859
1867
1835
1743
1681
1709
1931
2412
3130
3466
2810
2384
2089
1913
1874
1875
1830
1813
1804
1797
1798
1808
1812
1825
1830
1827
1837
1844
1848
1860
1872
1885
1889
1907
1915
1931
1951
1982
1998
2018
2045
2057
2074
2094
2111
2116
2124
2102
2063
2017
1949
1898
1856
1815
1778
1765
1761
1742
1747
1751
1747
1744
1757
1775
1765
1779
1776
1775
1795
1796
1794
1808
1808
1803
1809
1813
1810
1813
1826
1817
1851
1831
1825
1826
1830
1835
1824
1840
1838
1827
1842
1840
1833
1843
1859
1855
1858
1859
1863
1863
1874
1872
1870
1871
1871
1873
1886
1887
1861
1882
1890
1878
1887
1904
1901
1909
1925
1925
1947
2001
2023
2020
1990
1953
1920
1897
1857
1841
1840
1841
1838
1835
1842
1849
1848
1846
1843
1851
1851
1823
1728
1670
1698
1921
2447
3167
3403
2811
2377
2076
1898
1863
1838
1808
1792
1782
1778
1798
1795
1803
1808
1809
1808
1817
1835
1834
1853
1856
1860
1866
1891
1904
1922
1938
1964
1981
2009
2026
2043
2073
2096
2112
2116
2113
2094
2062
2015
1949
1902
1856
1808
1789
1768
1755
1750
1755
1750
1746
1757
1767
1765
1770
1786
1786
1793
1799
1791
1792
1799
1837
1808
1815
1812
1817
1825
1827
1822
1819
1827
1826
1834
1841
1821
1834
1834
1840
1839
1845
1846
1838
1838
1855
1856
1898
1872
1862
1863
1873
1872
1865
1870
1866
1866
1881
1874
1869
1876
1883
1884
1892
1891
1883
1889
1891
1878
1878
1881
1877
1883
1893
1894
1898
1915
1920
1932
1974
2017
2028
2018
1989
1957
1930
1902
1870
1862
1858
1851
1854
1855
1856
1851
1857
1853
1846
1856
1860
1788
1699
1679
1758
2112
2699
3270
3031
2523
2247
1975
1867
1856
1850
1827
1811
1805
1808
1821
1826
1825
1834
1833
1850
1871
1877
1872
1877
1890
1913
1920
1920
1930
1954
1974
1991
2009
2032
2053
2083
2112
2115
2128
2137
2139
2119
2096
2047
1987
1943
1904
1861
1838
1810
1802
1783
1771
1800
1806
1808
1806
1793
1802
1821
1821
1828
1833
1825
1832
1839
1842
1852
1858
1856
1863
1861
1858
1858
1869
1877
1871
1871
1879
1886
1891
1898
1887
1891
1887
1883
1885
1905
1904
1906
1904
1893
1887
1907
1923
1913
1920
1936
1936
1934
1954
1969
2093
2032
2045
2036
2016
1988
1936
1907
1905
1883
1874
1883
1873
1872
1876
1877
1877
1891
1889
1887
1886
1821
1739
1739
1841
2167
2831
3317
2925
2534
2256
2017
1904
1881
1872
1859
1841
1840
1835
1847
1850
1845
1850
1863
1871
1879
1885
1882
1890
1907
1904
1916
1937
1946
1942
1968
1990
2007
2035
2052
2076
2083
2103
2106
2112
2101
2059
2011
1974
1936
1874
1840
1808
1794
1786
1779
1776
1777
1776
1776
1773
1774
1761
1776
1791
1796
1793
1802
1805
1808
1820
1825
1829
1840
1835
1833
1830
1831
1829
1837
1846
1843
1850
1843
1843
1840
1847
1851
1841
1843
1843
1851
1889
1847
1870
1873
1870
1868
1872
1877
1872
1872
1872
1872
1874
1886
1894
1897
1914
1914
1926
1968
2006
2029
2016
1991
1963
1926
1884
1865
1847
1852
1849
1842
1853
1855
1850
1859
1866
1855
1865
1867
1821
1738
1697
1744
2000
2519
3280
3219
2683
2333
2010
1881
1862
1850
1826
1810
1792
1789
1802
1808
1808
1811
1810
1825
1849
1843
1856
1862
1867
1869
1893
1904
1902
1920
1955
1968
1995
2017
2032
2047
2067
2083
2099
2105
2098
2073
2035
1983
1924
1886
1840
1807
1787
1774
1751
1754
1756
1754
1749
1763
1758
1761
1767
1771
1769
1776
1781
1782
1786
1787
1791
1797
1806
1777
1776
1811
1807
1810
1827
1826
1817
1823
1819
1813
1818
1827
1821
1824
1836
1835
1831
1840
1840
1841
1851
1841
1841
1850
1846
1853
1863
1855
1859
1862
1862
1862
1867
1871
1872
1870
1871
1869
1870
1874
1869
1872
1877
1883
1872
1877
1873
1872
1869
1883
1884
1893
1909
1918
1939
1983
2005
2007
1996
1971
1932
1897
1863
1840
1840
1850
1843
1838
1847
1843
1835
1842
1854
1853
1858
1840
1753
1690
1682
1830
2379
3063
3520
2976
2416
2103
1925
1894
1869
1840
1825
1808
1808
1819
1817
1818
1827
1840
1841
1849
1871
1867
1872
1892
1905
1908
1926
1938
1949
1978
1999
2010
2039
2065
2085
2112
2150
2145
2160
2165
2149
2119
2090
2031
1969
1936
1884
1849
1829
1814
1807
1806
1802
1799
1808
1813
1814
1817
1840
1837
1839
1852
1856
1856
1865
1867
1871
1872
1874
1874
1879
1887
1886
1891
1903
1902
1906
1919
1904
1909
1920
1918
1917
1923
1931
1927
1934
1936
1931
1939
1941
1939
1942
1946
1947
1946
1951
1955
1955
1950
1949
1946
1957
1961
1963
1962
1957
1951
1956
1965
1964
1965
1968
1954
1952
1962
1960
1958
1959
1966
1962
1958
1965
1965
1985
1999
2000
2023
2064
2086
2086
2066
2046
2013
1985
1946
1927
1923
1922
1936
1922
1927
1921
1918
1983
1919
1916
1935
1904
1810
1754
1767
1968
2441
3132
3466
2846
2448
2161
1965
1938
1920
1887
1872
1853
1849
1854
1858
1856
1856
1861
1875
1885
1904
1901
1895
1907
1910
1923
1943
1952
1968
1981
1999
2011
2039
2059
2070
2095
2118
2146
2157
2157
2132
2101
2060
2001
1963
1918
1872
1824
1807
1787
1774
1775
1770
1775
1773
1776
1781
1775
1786
1792
1787
1776
1785
1798
1821
1812
1806
1817
1820
1810
1815
1826
1808
1812
1821
1829
1823
1829
1814
1815
1773
1809
1801
1821
1827
1822
1815
1822
1827
1831
1789
1835
1860
1826
1822
1808
1835
1859
1866
1875
1895
1932
1959
1984
1969
1942
1920
1881
1847
1823
1813
1805
1816
1822
1809
1801
1805
1805
1808
1808
1803
1807
1776
1680
1655
1693
1983
2594
3163
2977
2528
2247
2005
1828
1792
1805
1796
1787
1776
1769
1776
1786
1792
1793
1794
1806
1806
1813
1811
1819
1845
1846
1856
1868
1882
1897
1917
1936
1953
1973
2000
2007
2027
2047
2054
2043
2053
2026
1984
1945
1898
1851
1808
1784
1753
1745
1738
1735
1731
1730
1733
1739
1747
1744
1744
1751
1753
1753
1769
1774
1770
1781
1783
1787
1791
1790
1791
1793
1804
1806
1798
1810
1808
1807
1808
1808
1803
1808
1809
1807
1809
1814
1822
1826
1827
1839
1833
1840
1830
1827
1829
1844
1861
1872
1873
1872
1909
1968
1985
2047
1966
1923
1901
1872
1832
1817
1825
1815
1813
1819
1813
1808
1808
1819
1809
1819
1831
1814
1755
1681
1659
1806
2193
2801
3318
2864
2450
2172
1936
1833
1818
1814
1804
1784
1787
1789
1791
1798
1808
1808
1811
1840
1887
1840
1853
1860
1867
1873
1891
1890
1909
1936
1949
1965
1984
2010
2032
2061
2078
2091
2108
2107
2086
2060
2015
1951
1906
1863
1821
1788
1774
1759
1751
1753
1755
1746
1765
1758
1764
1770
1756
1776
1779
1791
1774
1801
1800
1799
1819
1808
1808
1819
1829
1881
1822
1834
1872
1811
1831
1838
1839
1845
1846
1847
1835
1846
1840
1840
1857
1854
1853
1853
1856
1856
1859
1867
1867
1871
1872
1872
1872
1881
1878
1873
1885
1886
1883
1889
1893
1888
1892
1893
1885
1893
1903
1887
1904
1914
1917
1926
1938
1957
1993
2031
2042
2021
2000
1967
1934
1886
1869
1857
1866
1867
1856
1859
1859
1856
1858
1860
1857
1869
1861
1797
1714
1682
1776
2122
2738
3490
3143
2605
2231
1949
1882
1872
1840
1814
1808
1797
1794
1802
1801
1805
1803
1818
1814
1825
1840
1850
1856
1859
1863
1872
1896
1906
1914
1927
1968
1984
2000
2024
2046
2075
2092
2097
2112
2116
2096
2046
1996
1937
1896
1851
1819
1776
1775
1759
1749
1759
1757
1765
1760
1765
1772
1776
1778
1787
1799
1808
1802
1811
1815
1827
1826
1835
1841
1838
1843
1851
1845
1844
1867
1853
1871
1862
1866
1860
1870
1876
1872
1885
1892
1889
1897
1903
1904
1909
1917
1913
1918
1930
1930
1926
1933
1935
1945
1983
1937
1943
1942
1952
1939
1951
1962
1957
1963
1968
1969
1965
1968
1972
1968
1974
1981
1978
1985
1984
1981
1984
1993
1983
1991
1997
1993
2000
2013
2020
2021
2027
2047
2102
2128
2134
2111
2082
2045
2002
1971
1967
1960
1951
1952
1949
1951
1953
1953
1947
1951
1971
1953
1933
1856
1779
1779
2000
2480
3192
3648
2957
2498
2201
2013
1957
1933
1906
1883
1872
1869
1867
1872
1874
1874
1877
1893
1902
1899
1907
1915
1922
1936
1942
1949
1983
1986
2000
2014
2037
2062
2086
2112
2125
2128
2159
2157
2165
2169
2138
2096
2044
2003
1938
1904
1857
1823
1808
1792
1792
1802
1792
1781
1781
1800
1803
1801
1812
1813
1808
1815
1820
1821
1830
1829
1820
1825
1829
1821
1827
1839
1833
1830
1843
1840
1839
1840
1838
1825
1831
1835
1840
1841
1851
1840
1840
1853
1849
1859
1861
1853
1846
1857
1859
1856
1859
1854
1856
1856
1856
1845
1856
1866
1863
1871
1882
1877
1893
1901
1917
1929
1955
1984
1993
2000
1982
1948
1910
1872
1858
1844
1847
1837
1835
1840
1840
1831
1831
1835
1839
1839
1837
1793
1709
1668
1725
1967
2543
3139
3111
2635
2301
2063
1882
1829
1814
1808
1792
1779
1776
1765
1782
1798
1808
1810
1815
1822
1813
1823
1835
1846
1858
1872
1879
1882
1904
1917
1933
1957
1969
1987
2003
2030
2038
2055
2065
2063
2035
2018
1974
1926
1874
1822
1789
1776
1744
1723
1722
1729
1715
1721
1730
1731
1733
1746
1742
1747
1756
1765
1765
1776
1785
1774
1777
1782
1776
1787
1792
1788
1805
1792
1794
1792
1798
1792
1789
1792
1792
1792
1794
1798
1792
1794
1806
1805
1802
1809
1803
1799
1812
1814
1809
1811
1817
1825
1845
1853
1856
1858
1890
1930
1967
1973
1949
1924
1890
1853
1827
1811
1801
1791
1791
1791
1795
1808
1801
1803
1805
1811
1809
1807
1729
1661
1647
1769
2193
2807
3307
2907
2432
2166
1920
1817
1815
1807
1779
1763
1763
1765
1765
1775
1782
1795
1806
1808
1809
1821
1829
1829
1842
1858
1871
1885
1904
1920
1923
1951
1974
1991
2017
2033
2047
2075
2085
2080
2083
2042
2000
1957
1906
1849
1815
1790
1768
1744
1744
1742
1741
1740
1744
1744
1750
1763
1766
1776
1783
1762
1778
1792
1792
1806
1811
1808
1818
1819
1821
1823
1828
1835
1836
1840
1835
1835
1837
1850
1847
1845
1854
1854
1853
1859
1859
1856
1867
1873
1867
1875
1873
1874
1879
1888
1882
1889
1895
1891
1886
1889
1885
1882
1899
1905
1887
1898
1906
1925
1936
1933
1963
2007
2039
2041
2021
1995
1970
1926
1893
1879
1872
1874
1872
1870
1873
1877
1872
1870
1878
1872
1877
1871
1798
1718
1703
1843
2265
2927
3537
3011
2528
2192
1938
1895
1883
1846
1821
1810
1808
1809
1822
1822
1824
1836
1836
1847
1856
1863
1870
1875
1895
1904
1914
1929
1936
1952
1979
1987
2007
2037
2065
2088
2111
2113
2127
2132
2134
2108
2060
2001
1939
1897
1852
1823
1790
1777
1776
1763
1766
1761
1765
1773
1776
1775
1791
1791
1793
1799
1808
1794
1808
1815
1814
1817
1824
1819
1818
1827
1840
1839
1847
1845
1849
1839
1847
1854
1853
1859
1870
1867
1870
1865
1861
1866
1871
1861
1872
1877
1872
1873
1879
1877
1881
1879
1879
1883
1889
1884
1889
1889
1878
1882
1886
1894
1894
1893
1894
1886
1890
1894
1885
1899
1904
1919
1927
1933
1946
1973
2020
2032
2016
1943
1955
1923
1899
1878
1863
1858
1872
1864
1863
1915
1867
1856
1814
1872
1872
1867
1809
1717
1680
1744
2128
2749
3447
3264
2621
2256
1990
1893
1865
1843
1807
1807
1798
1806
1808
1808
1803
1807
1823
1830
1839
1857
1858
1865
1877
1895
1902
1924
1942
1953
1969
1997
2007
2034
2064
2078
2108
2131
2135
2143
2148
2125
2090
2053
1983
1930
1892
1862
1834
1821
1811
1797
1793
1795
1804
1810
1814
1823
1826
1831
1840
1850
1856
1859
1858
1870
1866
1859
1868
1872
1875
1891
1883
1878
1887
1893
1897
1902
1903
1894
1890
1889
1900
1893
1898
1904
1903
1911
1910
1893
1897
1914
1911
1915
1926
1917
1907
1915
1921
1920
1929
1934
1935
1924
1915
1917
1919
1933
1948
1957
1968
1968
2000
2033
2060
2062
2027
2000
1955
1915
1897
1899
1897
1890
1872
1873
1869
1871
1867
1876
1882
1881
1874
1830
1743
1718
1775
2014
2496
3119
3098
2630
2352
2097
1885
1854
1845
1817
1803
1787
1778
1785
1795
1828
1807
1812
1819
1817
1825
1833
1841
1851
1863
1871
1877
1894
1908
1919
1941
1954
1968
1985
2017
2027
2042
2046
2064
2084
2053
2018
1973
1929
1886
1838
1793
1761
1751
1744
1744
1744
1750
1744
1735
1743
1753
1755
1751
1745
1747
1765
1770
1774
1782
1787
1789
1799
1796
1798
1808
1807
1794
1797
1815
1815
1815
1818
1811
1811
1820
1819
1818
1822
1833
1829
1837
1840
1840
1825
1829
1834
1840
1855
1859
1867
1875
1887
1904
1955
1984
1987
1984
1968
1924
1902
1867
1832
1831
1835
1831
1817
1826
1834
1825
1839
1840
1829
1835
1840
1802
1779
1675
1729
1982
2471
3141
3079
2615
2325
2032
1873
1839
1831
1808
1799
1790
1795
1808
1799
1803
1808
1817
1818
1829
1835
1840
1848
1859
1860
1877
1882
1897
1911
1927
1943
1963
1989
2001
2019
2053
2064
2064
2081
2080
2035
2000
1955
1904
1857
1813
1783
1758
1758
1742
1737
1738
1738
1742
1747
1745
1735
1754
1760
1754
1767
1760
1758
1766
1767
1769
1776
1784
1777
1801
1793
1797
1794
1805
1806
1804
1799
1801
1808
1810
1819
1805
1815
1818
1811
1819
1826
1823
1821
1837
1840
1826
1845
1840
1838
1847
1851
1845
1849
1858
1854
1855
1870
1857
1859
1871
1883
1899
1906
1907
1914
1955
2000
2014
2004
1974
1936
1900
1874
1854
1839
1851
1843
1839
1840
1846
1840
1840
1839
1839
1849
1849
1818
1721
1666
1696
1958
2613
3294
3314
2747
2288
2005
1890
1872
1840
1820
1805
1794
1793
1802
1794
1806
1814
1814
1822
1827
1840
1851
1859
1872
1874
1892
1904
1915
1933
1953
1972
2001
2023
2038
2060
2085
2099
2118
2128
2125
2102
2076
2023
1966
1913
1872
1827
1807
1791
1770
1761
1763
1767
1769
1777
1781
1778
1795
1783
1787
1803
1792
1803
1807
1808
1808
1753
1819
1809
1825
1831
1825
1831
1834
1840
1835
1840
1838
1829
1829
1836
1836
1841
1840
1840
1840
1853
1853
1845
1855
1856
1858
1861
1865
1856
1869
1869
1860
1870
1873
1870
1871
1874
1863
1869
1871
1874
1874
1885
1879
1878
1883
1876
1879
1885
1878
1875
1901
1913
1910
1921
1945
1981
2015
2033
2011
1975
1959
1914
1877
1872
1858
1855
1856
1853
1847
1854
1859
1853
1860
1861
1867
1866
1808
1713
1668
1744
2083
2803
3489
3193
2640
2214
1985
1905
1873
1852
1822
1799
1801
1807
1802
1808
1825
1820
1840
1850
1842
1859
1869
1872
1883
1899
1906
1920
1933
1943
1968
1987
2006
2035
2065
2091
2097
2112
2129
2140
2143
2128
2085
2026
1982
1920
1872
1850
1815
1779
1783
1773
1766
1825
1777
1776
1777
1781
1794
1796
1803
1808
1813
1813
1827
1841
1847
1840
1840
1845
1847
1843
1850
1853
1859
1862
1872
1862
1856
1865
1863
1870
1874
1870
1866
1871
1872
1865
1877
1877
1878
1878
1889
1886
1885
1897
1892
1879
1894
1890
1898
1904
1904
1889
1903
1906
1900
1898
1902
1895
1901
1907
1914
1904
1911
1927
1929
1939
1949
1980
2026
2057
2045
2010
1984
1947
1906
1886
1873
1872
1879
1874
1868
1870
1872
1875
1885
1895
1899
1883
1843
1743
1717
1794
2064
2675
3280
3098
2639
2315
2065
1917
1893
1870
1854
1851
1841
1839
1847
1856
1851
1863
1885
1885
1886
1895
1894
1909
1927
1936
1942
1952
1967
1988
2005
2026
2037
2064
2089
2097
2117
2142
2144
2142
2169
2154
2111
2076
2030
1982
1936
1905
1872
1854
1841
1837
1843
1833
1818
1838
1845
1850
1847
1853
1853
1856
1868
1873
1873
1877
1885
1885
1887
1890
1889
1885
1891
1904
1893
1888
1887
1891
1890
1891
1889
1905
1899
1903
1904
1905
1909
1906
1896
1907
1911
1919
1916
1915
1926
1941
1947
1954
1972
2003
2043
2067
2036
2007
1984
1936
1906
1903
1894
1878
1884
1878
1868
1872
1881
1876
1873
1886
1878
1876
1840
1741
1712
1789
2053
2663
3259
3058
2609
2304
2065
1901
1872
1865
1846
1837
1837
1826
1829
1837
1832
1835
1851
1849
1855
1867
1878
1872
1888
1895
1902
1909
1930
1939
1966
1986
2001
2013
2043
2061
2077
2093
2096
2096
2093
2070
2032
1981
1935
1874
1841
1822
1799
1787
1776
1766
1758
1770
1776
1770
1776
1776
1771
1776
1785
1782
1797
1803
1801
1803
1826
1801
1794
1812
1811
1815
1810
1822
1823
1829
1820
1819
1826
1824
1814
1814
1833
1834
1829
1838
1834
1831
1837
1839
1842
1845
1843
1838
1843
1854
1842
1850
1856
1846
1847
1863
1876
1885
1892
1895
1914
1969
2000
2011
1981
1947
1915
1854
1856
1831
1830
1827
1823
1810
1820
1810
1808
1824
1819
1823
1827
1818
1763
1676
1657
1757
2116
2845
3403
3024
2544
2150
1908
1847
1837
1806
1781
1773
1763
1770
1776
1771
1776
1786
1790
1794
1805
1808
1826
1840
1840
1851
1866
1875
1887
1910
1933
1943
1966
1995
2002
2023
2047
2078
2082
2091
2080
2047
1997
1890
1894
1842
1806
1773
1754
1741
1726
1713
1719
1731
1730
1731
1739
1744
1747
1746
1746
1767
1770
1764
1776
1783
1783
1776
1792
1792
1792
1792
1795
1797
1812
1803
1808
1808
1810
1798
1811
1813
1809
1812
1827
1814
1821
1825
1827
1838
1843
1835
1831
1840
1840
1840
1847
1846
1849
1849
1854
1792
1857
1865
1859
1856
1866
1859
1861
1871
1875
1885
1899
1897
1910
1951
1995
2010
2000
1963
1936
1891
1870
1840
1834
1839
1836
1835
1838
1837
1835
1840
1851
1841
1851
1851
1806
1710
1655
1709
2003
2710
3390
3244
2695
2240
1977
1893
1866
1829
1810
1798
1786
1791
1797
1787
1808
1809
1808
1814
1831
1843
1841
1850
1856
1866
1872
1895
1902
1931
1954
1968
1985
2015
2032
2063
2083
2096
2109
2121
2123
2101
2063
2004
1945
1902
1856
1815
1793
1782
1774
1770
1770
1762
1767
1774
1781
1785
1794
1801
1808
1815
1821
1821
1833
1833
1824
1835
1842
1840
1837
1841
1854
1855
1856
1863
1858
1870
1871
1891
1865
1873
1871
1871
1880
1872
1876
1877
1878
1889
1889
1896
1881
1883
1893
1897
1890
1892
1904
1903
1902
1897
1890
1905
1906
1901
1902
1894
1899
1904
1903
1904
1905
1910
1904
1915
1924
1968
1933
1940
1965
1999
2024
2027
2010
1984
1962
1930
1894
1872
1866
1863
1872
1867
1865
1863
1857
1854
1858
1866
1878
1859
1773
1709
1696
1875
2301
2935
3354
2802
2431
2167
1943
1872
1873
1836
1802
1794
1797
1794
1809
1827
1827
1840
1853
1844
1847
1851
1855
1869
1876
1883
1891
1908
1931
1944
1962
1968
1989
2015
2043
2063
2080
2088
2100
2091
2110
2082
2032
1968
1999
1886
1851
1810
1792
1783
1771
1753
1759
1767
1759
1769
1772
1771
1770
1801
1808
1795
1805
1811
1815
1819
1824
1821
1828
1823
1829
1835
1840
1839
1839
1843
1841
1834
1846
1855
1850
1844
1843
1869
1849
1845
1842
1857
1856
1863
1871
1878
1840
1859
1872
1856
1857
1878
1890
1898
1920
1918
1935
1983
2019
2031
2006
1973
1939
1904
1869
1857
1857
1859
1852
1851
1856
1850
1833
1848
1869
1869
1853
1843
1782
1712
1698
1806
2150
2695
3221
2874
2498
2262
2013
1863
1850
1849
1833
1859
1810
1808
1821
1818
1829
1834
1834
1849
1859
1862
1862
1871
1872
1873
1895
1906
1918
1943
1961
1972
1987
2015
2027
2036
2059
2070
2091
2097
2086
2054
2017
1963
1911
1873
1840
1805
1785
1777
1764
1754
1756
1766
1762
1773
1767
1762
1776
1783
1790
1795
1805
1799
1803
1803
1807
1809
1825
1826
1825
1826
1826
1830
1838
1840
1833
1840
1840
1840
1841
1845
1840
1843
1851
1842
1845
1859
1855
1856
1872
1863
1863
1866
1872
1885
1901
1906
1911
1937
1984
2010
2018
1998
1968
1932
1904
1861
1840
1843
1840
1831
1846
1850
1843
1845
1841
1841
1845
1856
1843
1792
1713
1679
1776
2128
2720
3382
3033
2576
2253
1961
1872
1854
1840
1815
1808
1808
1810
1808
1810
1823
1833
1839
1841
1848
1853
1861
1872
1878
1894
1907
1918
1931
1948
1962
1981
2010
2034
2053
2066
2082
2096
2114
2118
2102
2075
2022
1963
1922
1879
1838
1796
1786
1772
1762
1751
1719
1759
1773
1776
1775
1776
1781
1778
1792
1790
1787
1796
1814
1811
1808
1813
1819
1824
1831
1826
1824
1838
1840
1833
1839
1846
1837
1841
1854
1855
1857
1863
1856
1860
1872
1872
1872
1875
1883
1876
1887
1899
1894
1899
1906
1904
1903
1913
1910
1909
1916
1918
1913
1921
1935
1938
1954
1958
1967
1998
2038
2071
2064
2032
1998
1968
1937
1918
1895
1904
1893
1876
1904
1906
1904
1900
1914
1908
1909
1918
1895
1806
1744
1767
1969
2478
3303
3543
2919
2477
2125
1983
1955
1929
1895
1887
1878
1873
1879
1872
1878
1892
1904
1903
1906
1922
1920
1931
1946
1955
1969
1985
1985
2007
2075
2096
2077
2101
2139
2140
2164
2178
2186
2192
2199
2182
2151
2096
2039
1990
1936
1899
1867
1856
1838
