1785
1778
1783
1781
1778
1785
1778
1782
1791
1793
1795
1808
1811
1808
1813
1813
1813
1832
1814
1810
1808
1807
1801
1793
1787
1787
1795
1808
1836
1831
1858
1853
1869
1895
1911
1922
1907
1931
1971
2005
2001
2026
2035
2064
2081
2062
2081
2055
1997
1951
1911
1858
1831
1840
1827
1795
1794
1794
1793
1772
1758
1792
1794
1780
1803
1808
1810
1817
1825
1840
1802
1808
1827
1824
1814
1822
1826
1847
1857
1829
1821
1852
1857
1848
1846
1856
1846
1863
1854
1850
1850
1857
1856
1863
1890
1895
1908
1919
1936
1968
1984
2015
2000
1973
1915
1872
1863
1838
1802
1825
1842
1830
1805
1827
1834
1826
1836
1803
1850
1850
1822
1707
1751
1910
2256
2862
3283
2880
2451
2191
1984
1887
1870
1861
1846
1835
1834
1835
1847
1840
1844
1847
1861
1856
1866
1872
1869
1886
1883
1889
1901
1920
1911
1930
1966
1962
1966
1993
2003
2014
2032
2043
2038
2046
2038
2014
1999
1957
1902
1863
1842
1808
1785
1774
1773
1769
1761
1756
1746
1776
1776
1761
1777
1779
1782
1793
1802
1794
1796
1814
1814
1827
1839
1823
1819
1815
1827
1835
1846
1839
1840
1842
1842
1834
1836
1840
1839
1834
1855
1848
1846
1858
1857
1855
1855
1843
1855
1867
1888
1918
1933
1937
1969
2022
2064
2054
2046
2014
1970
1922
1887
1855
1831
1842
1840
1825
1817
1817
1821
1819
1824
1839
1847
1840
1786
1707
1744
1913
2309
2979
3600
3085
2397
2000
1882
1878
1858
1813
1741
1781
1773
1787
1796
1795
1793
1808
1817
1826
1840
1846
1813
1840
1846
1857
1872
1888
1899
1904
1933
1937
1959
1943
1993
1998
2031
2017
2032
2043
2069
2032
1992
1966
1911
1882
1840
1799
1785
1773
1750
1746
1756
1742
1746
1742
1758
1757
1766
1764
1760
1772
1776
1770
1776
1792
1790
1805
1808
1798
1806
1817
1824
1808
1805
1805
1808
1808
1825
1809
1814
1833
1839
1840
1836
1834
1851
1855
1854
1862
1862
1856
1858
1881
1874
1857
1866
1872
1866
1879
1874
1876
1886
1891
1882
1889
1897
1894
1902
1904
1909
1936
1955
1951
1967
2021
2054
2064
2070
2015
1977
1939
1895
1865
1859
1857
1862
1856
1858
1851
1866
1872
1857
1854
1859
1854
1791
1712
1746
1921
2352
3084
3600
3035
2432
2040
1907
1899
1886
1841
1840
1829
1803
1809
1838
1830
1827
1847
1855
1869
1863
1856
1876
1888
1903
1913
1913
1922
1933
1954
1973
1988
2017
2026
2029
2042
2064
2076
2102
2113
2106
2096
2086
2032
1986
1943
1909
1873
1850
1841
1828
1819
1815
1818
1815
1821
1813
1827
1839
1840
1837
1850
1855
1856
1857
1845
1847
1860
1861
1870
1867
1857
1853
1875
1885
1871
1863
1877
1882
1879
1875
1871
1872
1882
1885
1882
1886
1901
1903
1909
1913
1907
1919
1908
1904
1908
1923
1930
1925
1920
1905
1908
1920
1918
1920
1921
1913
1906
1918
1931
1920
1920
1922
1919
1936
1920
1917
1929
1947
1943
1938
1942
1947
1936
1955
1977
1981
2000
1999
2047
2098
2112
2096
2095
2046
2010
1977
1940
1926
1941
1937
1936
1911
1929
1927
1931
1951
1936
1942
1937
1849
1756
1769
1971
2375
3080
3673
3035
2502
2175
1989
1959
1954
1922
1898
1901
1890
1879
1883
1881
1872
1879
1899
1898
1899
1903
1903
1870
1919
1929
1934
1945
1949
1935
1959
1975
1985
1994
2026
2055
2067
2080
2090
2100
2096
2097
2074
2019
1983
1939
1911
1874
1836
1823
1803
1794
1803
1798
1794
1808
1819
1816
1839
1856
1845
1840
1840
1847
1843
1845
1845
1854
1851
1851
1843
1846
1851
1849
1856
1860
1815
1854
1851
1862
1856
1840
1827
1830
1840
1840
1840
1840
1840
1828
1839
1846
1842
1840
1849
1840
1840
1846
1841
1840
1838
1839
1831
1840
1842
1838
1846
1847
1844
1845
1847
1846
1834
1841
1844
1847
1859
1872
1874
1898
1903
1933
1969
1991
1979
1953
1919
1887
1847
1830
1808
1810
1809
1808
1811
1811
1798
1808
1826
1818
1810
1792
1703
1629
1659
1847
2320
3099
3303
2771
2352
2026
1877
1840
1817
1779
1755
1751
1763
1746
1762
1767
1763
1779
1777
1777
1793
1798
1808
1817
1843
1851
1854
1869
1887
1899
1947
1930
1953
1975
1999
2015
2071
2053
2059
2077
2096
2047
2017
1974
1923
1872
1825
1788
1765
1750
1747
1737
1734
1733
1728
1729
1738
1733
1747
1762
1749
1761
1763
1756
1766
1776
1764
1760
1782
1779
1776
1786
1789
1785
1791
1779
1789
1806
1802
1795
1808
1818
1817
1818
1822
1813
1814
1839
1829
1818
1825
1824
1834
1840
1845
1860
1885
1902
1898
1923
1968
2000
2005
1983
1940
1902
1872
1846
1825
1825
1821
1808
1818
1818
1818
1831
1835
1825
1835
1834
1776
1675
1645
1705
1985
2645
3314
3210
2667
2227
1968
1887
1872
1830
1802
1798
1777
1778
1789
1789
1793
1813
1821
1828
1834
1839
1845
1859
1870
1871
1889
1898
1894
1907
1927
1937
1962
1985
2005
2032
2047
2064
2071
2081
2081
2061
2026
1975
1927
1879
1842
1795
1774
1758
1749
1744
1754
1749
1743
1750
1763
1766
1777
1776
1781
1781
1786
1778
1788
1799
1790
1799
1814
1817
1811
1815
1811
1819
1843
1840
1815
1819
1818
1825
1835
1838
1840
1851
1867
1862
1899
1904
1904
1963
2013
2032
2029
1984
1963
1929
1895
1867
1850
1857
1860
1864
1846
1849
1854
1857
1867
1867
1875
1883
1807
1727
1711
1840
2205
2784
3325
2921
2532
2252
2013
1922
1915
1890
1882
1872
1866
1874
1881
1883
1887
1904
1909
1920
1931
1939
1952
1960
1979
1984
1998
2013
2025
2059
2075
2083
2101
2119
2132
2171
2240
2190
2202
2205
2211
2176
2164
2122
2083
2036
1995
1968
1953
1950
1935
1936
1933
1930
1940
1956
1958
1955
1955
1968
1969
1984
1979
1968
1982
1994
1986
1987
1987
1989
1993
1995
2001
1994
2003
1970
2000
2018
2033
2031
2031
2061
2100
2157
2173
2143
2112
2086
2042
1996
1983
1957
1949
1954
1948
1949
1950
1953
1950
1949
1949
1950
1946
1894
1808
1779
1867
2241
2778
3349
3061
2567
2299
2075
1942
1933
1931
1901
1899
1901
1891
1887
1891
1898
1904
1906
1909
1936
1947
1942
1938
1948
1954
1962
1979
1985
1989
2006
2029
2058
2064
2070
2077
2086
2098
2112
2122
2112
2081
2045
2010
1962
1919
1883
1858
1840
1830
1808
1800
1808
1815
1809
1802
1808
1803
1807
1814
1822
1826
1815
1833
1825
1838
1831
1830
1840
1841
1837
1829
1838
1839
1833
1838
1840
1846
1872
1873
1883
1943
1982
2000
1996
1953
1915
1876
1840
1811
1801
1802
1790
1791
1803
1797
1792
1793
1792
1792
1807
1808
1759
1680
1621
1713
2000
2501
3155
2992
2525
2226
1939
1821
1809
1806
1782
1772
1755
1755
1758
1762
1776
1778
1792
1801
1808
1803
1808
1827
1822
1823
1853
1858
1867
1891
1886
1906
1932
1947
1968
1968
1983
1981
1998
2002
1999
1986
1947
1918
1869
1837
1785
1761
1758
1731
1726
1719
1717
1713
1728
1712
1695
1718
1728
1732
1737
1746
1735
1741
1744
1744
1746
1750
1757
1759
1765
1764
1773
1769
1762
1753
1770
1775
1773
1776
1792
1810
1821
1839
1847
1890
1941
1959
1935
1910
1867
1834
1808
1786
1779
1775
1762
1756
1770
1776
1771
1775
1785
1789
1803
1808
1725
1639
1643
1767
2210
2818
3330
2973
2438
2141
1914
1855
1850
1823
1811
1802
1790
1797
1811
1823
1831
1841
1840
1850
1877
1883
1885
1897
1914
1926
1936
1942
1967
1979
1995
2022
2036
2058
2066
2074
2089
2101
2112
2123
2113
2084
2058
2033
1975
1941
1914
1888
1872
1861
1856
1846
1857
1867
1857
1872
1862
1861
1866
1877
1892
1891
1904
1898
1898
1904
1904
1909
1920
1922
1920
1925
1935
1921
1923
1926
1933
1941
1938
1920
1922
1933
1934
1949
1956
1953
1946
1945
1904
1962
1968
1971
1970
1994
2017
2025
2018
2044
2089
2110
2106
2079
2043
2026
1969
1936
1930
1920
1898
1887
1893
1891
1903
1901
1903
1904
1905
1898
1858
1782
1709
1766
2017
2522
3279
3282
2717
2319
2001
1889
1866
1841
1817
1805
1805
1786
1791
1799
1801
1803
1812
1817
1822
1837
1854
1854
1855
1857
1871
1871
1893
1907
1911
1921
1940
1951
1971
1994
1999
2002
2022
2028
2024
2019
1995
1952
1918
1873
1831
1798
1776
1744
1742
1739
1728
1734
1733
1729
1728
1744
1753
1753
1770
1776
1776
1753
1777
1776
1786
1786
1810
1782
1786
1789
1792
1798
1787
1797
1795
1791
1795
1797
1801
1806
1811
1812
1811
1812
1838
1831
1830
1834
1833
1827
1834
1837
1838
1840
1837
1829
1829
1830
1829
1835
1839
1833
1838
1841
1835
1839
1837
1829
1840
1857
1857
1860
1878
1929
1954
1984
1946
1900
1876
1843
1802
1781
1784
1769
1769
1761
1763
1769
1769
1776
1782
1821
1770
1711
1625
1585
1680
2025
2624
3258
3038
2511
2141
1892
1805
1786
1760
1741
1730
1708
1711
1723
1727
1740
1746
1744
1745
1757
1760
1766
1776
1775
1754
1808
1818
1831
1853
1863
1873
1897
1910
1923
1953
1974
1980
1997
2006
2005
2013
2000
1959
1919
1882
1840
1798
1778
1766
1753
1751
1744
1744
1746
1757
1767
1776
1779
1772
1779
1786
1785
1789
1793
1797
1814
1814
1809
1812
1808
1803
1801
1808
1822
1814
1821
1825
1812
1809
1813
1809
1822
1821
1809
1827
1856
1839
1823
1831
1838
1835
1841
1854
1853
1863
1883
1862
1854
1872
1863
1872
1879
1882
1887
1890
1887
1904
1921
1920
1933
1985
2017
2032
2043
2018
1973
1952
1931
1886
1879
1881
1875
1880
1872
1867
1862
1875
1895
1893
1892
1853
1777
1725
1731
1939
2350
2945
3176
2701
2416
2176
1958
1878
1872
1840
1825
1817
1811
1808
1812
1841
1856
1859
1847
1860
1851
1863
1872
1904
1902
1906
1914
1927
1941
1943
1969
1979
1992
2006
2016
2039
2064
2064
2061
2064
2077
2075
2041
1985
1962
1923
1885
1854
1845
1837
1808
1808
1812
1809
1799
1807
1807
1814
1824
1830
1830
1837
1840
1839
1838
1826
1831
1855
1840
1839
1836
1787
1829
1854
1859
1845
1851
1838
1834
1875
1854
1845
1843
1857
1861
1847
1837
1871
1871
1870
1883
1883
1913
1959
1984
1990
1987
1957
1931
1892
1853
1838
1840
1815
1798
1811
1831
1813
1821
1831
1824
1817
1837
1797
1705
1657
1712
1941
2357
3011
3005
2607
2341
2069
1886
1836
1827
1819
1807
1783
1779
1791
1795
1791
1802
1810
1825
1840
1821
1837
1858
1851
1852
1877
1891
1888
1890
1911
1921
1951
1981
1991
1983
1984
1990
2016
2023
2029
2027
2009
1960
1910
1885
1857
1830
1807
1787
1772
1791
1779
1767
1763
1764
1777
1792
1802
1799
1786
1790
1809
1821
1837
1828
1818
1839
1861
1858
1861
1858
1842
1840
1841
1839
1839
1843
1853
1849
1849
1861
1854
1859
1871
1861
1866
1856
1853
1856
1875
1873
1877
1867
1872
1892
1904
1906
1915
1934
1975
2000
2021
1991
1953
1936
1915
1859
1837
1847
1857
1840
1833
1822
1833
1842
1834
1812
1830
1834
1767
1711
1705
1802
2115
2622
3136
2832
2467
2240
1968
1856
1838
1818
1810
1798
1796
1809
1795
1795
1823
1807
1780
1799
1811
1829
1850
1849
1851
1879
1889
1878
1890
1919
1937
1950
1965
1967
2011
2016
2000
2000
2021
2035
2039
2019
1982
1937
1910
1881
1842
1829
1814
1785
1775
1774
1778
1776
1771
1778
1789
1782
1789
1790
1791
1782
1799
1805
1810
1808
1831
1833
1818
1808
1822
1842
1829
1823
1827
1824
1835
1835
1829
1825
1841
1843
1823
1831
1836
1840
1843
1854
1840
1856
1851
1854
1856
1858
1842
1825
1869
1858
1872
1899
1893
1875
1920
1970
1997
2000
1980
1957
1922
1889
1842
1828
1823
1828
1776
1840
1838
1811
1815
1821
1840
1843
1824
1761
1709
1666
1754
2085
2604
3120
2935
2533
2249
2018
1865
1834
1835
1818
1786
1777
1782
1783
1787
1797
1803
1821
1841
1840
1845
1862
1872
1879
1886
1903
1907
1914
1932
1938
1969
1988
1986
1991
2013
2026
2038
2057
2054
2043
2032
2000
1942
1905
1871
1829
1793
1777
1764
1754
1743
1729
1730
1728
1728
1731
1742
1744
1744
1753
1749
1758
1768
1770
1769
1771
1786
1787
1789
1781
1792
1786
1792
1793
1792
1802
1792
1794
1791
1793
1793
1805
1799
1792
1802
1807
1808
1807
1822
1814
1822
1821
1818
1808
1826
1811
1808
1815
1829
1823
1827
1850
1827
1826
1821
1822
1827
1825
1836
1831
1838
1833
1829
1839
1840
1834
1852
1869
1872
1877
1906
1957
1982
1981
1945
1920
1882
1846
1809
1799
1805
1787
1791
1801
1789
1798
1793
1794
1801
1808
1789
1711
1664
1691
1883
2335
3024
3312
2750
2259
1939
1855
1842
1824
1791
1776
1764
1766
1765
1761
1776
1791
1803
1807
1808
1824
1823
1826
1835
1843
1856
1878
1882
1891
1911
1919
1933
1938
1959
1974
1995
2001
2009
2027
2029
2023
2010
1991
1952
1920
1865
1824
1800
1785
1751
1754
1750
1744
1749
1751
1758
1759
1767
1767
1762
1781
1786
1783
1787
1801
1801
1808
1804
1805
1813
1822
1819
1808
1819
1821
1823
1827
1817
1816
1823
1817
1815
1822
1825
1834
1830
1829
1840
1840
1834
1840
1843
1853
1840
1841
1847
1848
1847
1867
1872
1863
1875
1872
1863
1860
1871
1877
1875
1876
1871
1872
1872
1871
1874
1876
1885
1883
1887
1886
1872
1878
1886
1883
1884
1890
1886
1885
1901
1894
1887
1898
1901
1903
1904
1897
1895
1909
1921
1937
1963
1964
1985
2007
2036
2023
1999
1961
1923
1897
1885
1874
1861
1872
1870
1857
1872
1875
1860
1861
1865
1872
1802
1728
1712
1826
2250
2861
3494
3207
2450
2144
1942
1926
1904
1869
1851
1823
1832
1841
1839
1837
1851
1846
1854
1865
1868
1867
1884
1903
1906
1919
1934
1939
1954
1978
1979
1996
2011
2022
2042
2077
2093
2103
2107
2090
2086
2087
2071
2034
1978
1936
1901
1876
1838
1815
1799
1801
1793
1793
1810
1811
1819
1833
1821
1815
1832
1835
1834
1851
1846
1851
1853
1850
1850
1856
1857
1875
1883
1874
1863
1873
1874
1866
1872
1879
1883
1890
1886
1878
1877
1894
1902
1891
1891
1889
1888
1899
1906
1904
1905
1917
1921
1920
1917
1923
1905
1915
1925
1910
1923
1922
1919
1927
1939
1936
1929
1936
1929
1920
1935
1947
1935
1935
1936
1925
1930
1947
1958
1947
1962
1946
1944
1941
1939
1943
1951
1942
1937
1943
1939
1935
1931
1929
1925
1926
1923
1925
1997
1927
1927
1931
1936
1955
1963
1968
1989
2033
2078
2069
2032
2002
1978
1925
1891
1895
1889
1892
1886
1879
1881
1884
1883
1888
1892
1873
1824
1745
1701
1791
2146
2743
3504
3193
2617
2242
1978
1930
1901
1872
1840
1827
1827
1825
1829
1830
1845
1851
1850
1856
1857
1859
1873
1891
1893
1907
1909
1918
1939
1956
1956
1984
2022
2035
2054
2062
2074
2080
2102
2119
2126
2121
2083
2046
2001
1955
1901
1864
1843
1817
1786
1781
1773
1772
1782
1777
1777
1787
1795
1798
1800
1808
1803
1803
1804
1807
1808
1823
1822
1821
1825
1830
1831
1838
1840
1845
1853
1851
1842
1842
1843
1845
1856
1863
1870
1862
1867
1863
1867
1872
1871
1870
1874
1887
1884
1885
1886
1877
1887
1895
1890
1889
1919
1904
1903
1898
1894
1897
1904
1904
1897
1950
1909
1902
1910
1914
1903
1908
1920
1918
1911
1919
1907
1905
1919
1911
1907
1910
1909
1926
1939
1933
1936
1969
2015
2046
2065
2035
1995
1968
1934
1906
1890
1878
1867
1872
1879
1878
1872
1890
1902
1897
1888
1857
1767
1706
1734
1939
2500
3153
3299
2779
2363
2066
1936
1904
1881
1846
1842
1842
1820
1822
1825
1834
1856
1865
1863
1870
1872
1874
1889
1903
1914
1907
1936
1955
1969
1983
1984
1984
2025
2054
2069
2098
2113
2112
2125
2143
2140
2122
2096
2038
1977
1945
1902
1859
1839
1823
1806
1811
1810
1807
1808
1811
1802
1805
1815
1817
1823
1830
1829
1831
1840
1843
1846
1844
1831
1824
1837
1855
1839
1840
1845
1845
1839
1840
1849
1861
1856
1852
1842
1851
1867
1862
1863
1872
1875
1870
1857
1860
1867
1873
1885
1893
1904
1884
1878
1902
1920
1920
1929
1920
1965
2015
2032
2021
2003
1978
1949
1892
1866
1872
1856
1847
1830
1841
1846
1862
1840
1847
1851
1904
1844
1747
1685
1701
1905
2304
2886
3199
2665
2378
2176
1949
1844
1855
1852
1840
1824
1815
1815
1815
1819
1833
1840
1840
1845
1856
1859
1871
1872
1881
1896
1904
1917
1923
1941
1968
1970
1986
2011
2031
2059
2067
2078
2081
2078
2064
2043
2005
1971
1920
1877
1856
1826
1803
1795
1798
1782
1778
1779
1770
1776
1783
1783
1794
1808
1804
1801
1808
1805
1802
1803
1808
1823
1835
1838
1826
1842
1842
1823
1826
1825
1827
1839
1846
1843
1840
1839
1833
1836
1851
1851
1843
1857
1873
1875
1899
1936
1968
1991
2010
1979
1941
1921
1877
1869
1839
1825
1824
1823
1825
1821
1808
1809
1808
1813
1837
1819
1785
1698
1647
1718
1990
2438
2998
2960
2533
2297
2081
1862
1826
1827
1815
1789
1787
1795
1791
1803
1808
1811
1825
1830
1830
1835
1840
1858
1869
1876
1886
1904
1920
1921
1934
1952
1959
1983
2002
2032
2036
2054
2064
2080
2079
2053
1999
1951
1960
1889
1841
1815
1799
1776
1770
1769
1767
1765
1771
1761
1758
1762
1770
1772
1783
1781
1787
1799
1798
1796
1808
1809
1808
1821
1825
1817
1819
1837
1835
1823
1838
1840
1833
1828
1840
1843
1839
1840
1847
1856
1845
1846
1854
1860
1862
1861
1862
1870
1882
1914
1913
1914
1936
1984
2027
2029
2022
1981
1949
1920
1885
1853
1852
1840
1839
1840
1831
1833
1840
1843
1844
1856
1856
1827
1738
1680
1702
1942
2428
3081
3465
2803
2320
2037
1906
1874
1847
1824
1810
1793
1802
1807
1790
1808
1818
1818
1834
1847
1847
1857
1875
1869
1872
1893
1911
1922
1938
1947
1959
1989
2010
2022
2042
2063
2074
2086
2106
2103
2099
2067
2011
1966
1911
1859
1830
1803
1785
1773
1775
1782
1776
1778
1779
1776
1780
1792
1792
1803
1815
1801
1805
1814
1809
1814
1808
1814
1815
1835
1841
1840
1835
1840
1825
1840
1854
1842
1847
1845
1847
1847
1840
1856
1856
1862
1862
1866
1877
1861
1856
1871
1872
1869
1874
1889
1872
1878
1887
1899
1915
1936
1936
1938
1984
2027
2032
2025
1993
1943
1942
1894
1859
1854
1854
1853
1851
1856
1845
1855
1862
1859
1855
1850
1835
1766
1699
1694
1849
2277
2928
3512
2982
2463
2131
1914
1888
1861
1817
1804
1798
1792
1811
1805
1795
1808
1818
1823
1840
1849
1853
1869
1873
1870
1882
1904
1913
1927
1952
1968
1978
2005
2023
2061
2074
2082
2082
2096
2111
2102
2085
2029
1975
1930
1894
1853
1822
1803
1783
1776
1786
1780
1775
1789
1789
1778
1783
1803
1806
1807
1815
1808
1808
1819
1818
1821
1835
1834
1827
1847
1850
1841
1855
1856
1856
1865
1841
1842
1854
1857
1867
1866
1870
1869
1869
1877
1879
1882
1890
1887
1875
1872
1883
1887
1889
1902
1893
1879
1893
1843
1890
1904
1902
1902
1904
1907
1914
1909
1911
1916
1906
1931
1934
1934
1943
1982
2032
2063
2060
2017
1990
1965
1914
1881
1862
1872
1879
1875
1873
1872
1904
1861
1869
1878
1872
1863
1803
1709
1703
1854
2245
2969
3433
2967
2496
2133
1940
1893
1875
1856
1829
1827
1818
1807
1809
1828
1847
1843
1840
1839
1841
1863
1875
1881
1897
1902
1921
1936
1936
1941
1969
1983
1984
2010
2046
2064
2085
2107
2096
2093
2109
2100
2053
2019
1963
1907
1882
1851
1810
1792
1792
1776
1771
1791
1782
1779
1791
1787
1795
1805
1797
1807
1821
1819
1821
1840
1837
1808
1821
1835
1834
1834
1843
1828
1824
1833
1844
1845
1856
1845
1840
1842
1855
1859
1869
1845
1855
1859
1865
1867
1877
1871
1863
1861
1868
1862
1869
1881
1878
1887
1915
1924
1936
1978
2013
2035
2003
1975
1950
1904
1879
1851
1847
1851
1839
1831
1847
1842
1838
1840
1840
1847
1856
1831
1750
1687
1739
1930
2350
3002
3102
2619
2338
2091
1904
1840
1853
1825
1823
1818
1811
1809
1823
1808
1787
1840
1806
1843
1854
1843
1848
1871
1872
1872
1887
1904
1889
1923
1950
1968
1977
1999
2020
2017
2031
2060
2053
2043
2034
2011
1979
1938
1897
1856
1840
1818
1798
1798
1790
1783
1778
1776
1776
1777
1776
1779
1785
1801
1806
1817
1808
1808
1812
1820
1817
1815
1812
1824
1830
1829
1817
1828
1837
1834
1830
1835
1843
1844
1849
1839
1831
1840
1852
1861
1865
1850
1849
1861
1875
1872
1866
1882
1891
1895
1917
1943
1985
2001
1999
1973
1945
1909
1863
1840
1846
1842
1839
1838
1819
1819
1833
1823
1818
1835
1838
1821
1761
1681
1664
1775
2054
2607
3125
2850
2450
2213
1997
1835
1815
1824
1814
1779
1780
1779
1779
1792
1797
1799
1806
1808
1808
1825
1833
1837
1840
1853
1858
1874
1895
1899
1905
1930
1954
1961
1979
1997
2005
2025
2025
2016
2016
2002
1971
1906
1869
1806
1793
1778
1765
1751
1745
1728
1712
1712
1713
1719
1723
1741
1738
1735
1749
1743
1745
1762
1760
1757
1762
1770
1770
1776
1785
1785
1792
1792
1791
1793
1802
1790
1797
1808
1809
1810
1808
1799
1806
1808
1815
1807
1831
1837
1825
1824
1831
1833
1830
1833
1827
1847
1856
1847
1840
1857
1850
1863
1866
1859
1858
1871
1867
1871
1872
1870
1856
1879
1885
1879
1884
1893
1882
1880
1892
1894
1890
1906
1905
1904
1920
1930
1936
1946
1977
2029
2047
2064
2021
1987
1955
1914
1886
1876
1875
1885
1877
1873
1872
1873
1877
1874
1874
1888
1870
1793
1732
1728
1870
2402
3001
3503
3029
2416
2125
1948
1907
1881
1863
1841
1839
1841
1831
1840
1840
1847
1856
1854
1878
1890
1891
1900
1915
1915
1936
1948
1959
1968
1983
1998
2014
2045
2064
2075
2095
2112
2112
2143
2145
2135
2133
2098
2053
1986
1948
1904
1874
1846
1823
1817
1812
1811
1809
1824
1827
1824
1838
1839
1840
1851
1851
1851
1855
1868
1861
1866
1867
1865
1875
1885
1875
1879
1884
1875
1874
1885
1882
1882
1863
1873
1879
1888
1889
1888
1895
1897
1887
1890
1903
1904
1901
1904
1912
1910
1923
1914
1904
1923
1929
1919
1919
1922
1904
1913
1943
1921
1930
1925
1921
1915
1933
1936
1934
1936
1926
1910
1925
1930
1930
1933
1926
1933
1932
1878
1926
1931
1933
1930
1937
1938
1951
1938
1938
1938
1922
1931
1935
1937
1936
1930
1922
1936
1931
1936
1937
1948
1929
1926
1934
1936
1939
1968
1977
1973
1974
2015
2043
2059
2053
2031
2000
1971
1937
1906
1895
1902
1897
1892
1883
1877
1878
1873
1872
1883
1891
1808
1737
1707
1783
2176
2796
3470
3306
2622
2229
1985
1926
1890
1845
1823
1798
1792
1805
1803
1798
1811
1823
1822
1821
1834
1840
1856
1861
1862
1872
1882
1886
1894
1919
1936
1955
1961
1980
1991
2025
2059
2062
2064
2066
2073
2071
2064
2022
1965
1921
1879
1845
1808
1791
1775
1776
1751
1744
1760
1770
1759
1764
1782
1790
1791
1793
1801
1808
1808
1808
1808
1811
1823
1827
1837
1837
1838
1835
1827
1819
1827
1839
1838
1845
1854
1840
1847
1849
1840
1842
1857
1849
1838
1840
1855
1852
1870
1871
1869
1870
1872
1872
1872
1873
1871
1873
1888
1893
1878
1881
1883
1888
1881
1893
1895
1901
1898
1889
1897
1905
1897
1897
1907
1902
1884
1903
1919
1904
1918
1908
1905
1929
1943
1942
1954
1984
2025
2046
2047
2027
2001
1974
1910
1884
1888
1889
1879
1873
1883
1877
1888
1872
1867
1881
1895
1855
1770
1741
1766
1954
2453
3035
3201
2747
2368
2162
1968
1904
1897
1877
1878
1870
1865
1862
1872
1877
1893
1895
1907
1911
1914
1923
1924
1929
1952
1967
1980
1997
2014
2030
2043
2064
2085
2084
2109
2141
2158
2160
2161
2171
2181
2161
2128
2099
2053
2018
1969
1939
1929
1921
1904
1891
1898
1904
1904
1904
1915
1930
1936
1930
1933
1938
1940
1949
1954
1959
1968
1934
1962
1979
1981
1979
1987
2000
1988
1990
1990
1990
1977
1965
2000
1987
2000
2003
1999
2017
2016
2010
1997
2000
2003
2011
2016
2009
2000
2004
2017
2015
2011
2023
2010
2015
2026
2032
2035
2055
2074
2112
2147
2160
2130
2113
2062
2015
1987
1968
1956
2015
1955
1939
1907
1951
1945
1937
1948
1936
1946
1918
1781
1783
1840
2085
2637
3218
3136
2658
2350
2118
1947
1913
1911
1885
1875
1872
1858
1850
1864
1870
1884
1900
1902
1895
1904
1910
1913
1923
1922
1932
1943
1963
1969
1980
1998
2003
2026
2035
2064
2080
2097
2094
2110
2096
2081
2034
1990
1941
1890
1851
1780
1798
1772
1769
1762
1757
1755
1751
1746
1761
1767
1762
1755
1764
1762
1763
1779
1778
1782
1793
1795
1787
1802
1798
1799
1805
1802
1792
1789
1793
1792
1795
1799
1789
1795
1799
1791
1788
1794
1792
1793
1802
1795
1794
1809
1808
1798
1808
1808
1792
1807
1808
1807
1809
1808
1810
1813
1818
1792
1815
1819
1815
1819
1815
1776
1812
1822
1842
1809
1815
1824
1840
1841
1850
1863
1906
1936
1949
1946
1923
1875
1843
1810
1781
1766
1765
1771
1764
1770
1769
1755
1763
1769
1776
1765
1744
1665
1603
1639
1850
2323
2955
3214
2649
2229
1956
1787
1761
1757
1735
1714
1712
1706
1691
1712
1712
1727
1734
1743
1753
1758
1770
1752
1765
1787
1807
1823
1833
1826
1837
1862
1882
1911
1935
1957
1967
1988
2012
2018
2027
2017
1985
1941
1907
1833
1808
1762
1730
1715
1710
1690
1691
1698
1698
1694
1709
1710
1712
1728
1739
1738
1759
1759
1759
1760
1776
1774
1776
1788
1792
1797
1811
1808
1807
1810
1810
1813
1819
1819
1817
1826
1830
1827
1840
1842
1847
1856
1857
1856
1854
1872
1872
1869
1871
1883
1883
1889
1893
1899
1898
1899
1888
1901
1914
1920
1915
1911
1910
1920
1927
1936
1920
1923
1933
1918
1919
1934
1939
1938
1955
1939
1943
1943
1936
1938
1947
1954
1950
1959
1957
1955
1955
1960
1957
1958
1968
1962
1974
1982
1984
1999
2006
2000
2032
2081
2103
2105
2092
2069
2017
1975
1943
1935
1938
1932
1937
1937
1935
1933
1927
1929
1936
1931
1914
1826
1761
1771
1949
2400
3063
3605
3008
2499
2179
1958
1925
1904
1861
1840
1830
1833
1828
1835
1835
1830
1841
1845
1841
1853
1870
1874
1878
1886
1883
1902
1920
1933
1946
1968
1977
1988
2020
2033
2039
2066
2087
2096
2099
2097
2079
2035
1997
1936
1901
1842
1808
1775
1749
1754
1751
1748
1753
1747
1754
1756
1758
1771
1768
1761
1776
1792
1782
1778
1790
1799
1791
1802
1801
1798
1811
1824
1837
1823
1824
1815
1818
1818
1808
1824
1829
1819
1819
1839
1838
1831
1836
1842
1851
1852
1839
1839
1841
1843
1847
1852
1856
1856
1857
1863
1857
1851
1859
1853
1854
1869
1871
1847
1856
1872
1871
1866
1859
1856
1872
1879
1877
1858
1858
1870
1878
1887
1870
1870
1875
1872
1875
1885
1879
1873
1875
1882
1873
1887
1894
1891
1878
1886
1893
1899
1888
1879
1899
1907
1924
1927
1925
1954
1985
2013
2023
1999
1965
1936
1887
1856
1861
1859
1851
1854
1826
1830
1840
1841
1834
1844
1846
1802
1745
1708
1727
1942
2414
3104
3113
2704
2320
2038
1878
1850
1856
1841
1820
1787
1792
1799
1803
1817
1819
1821
1827
1840
1840
1869
1872
1866
1874
1903
1902
1910
1914
1927
1955
1978
1986
2002
2033
2053
2064
2078
2091
2083
2090
2068
2033
1993
1951
1918
1863
1835
1808
1775
1779
1775
1773
1783
1760
1754
1776
1776
1783
1777
1783
1787
1797
1802
1808
1809
1808
1824
1818
1833
1829
1819
1822
1830
1833
1841
1840
1841
1844
1840
1839
1822
1829
1847
1855
1840
1840
1843
1851
1845
1853
1855
1867
1855
1846
1872
1869
1843
1856
1857
1859
1858
1846
1840
1855
1882
1882
1866
1851
1856
1869
1879
1879
1891
1902
1903
1941
1963
1987
1998
1983
1946
1922
1897
1881
1811
1856
1837
1826
1821
1823
1839
1840
1835
1835
1839
1827
1744
1662
1649
1715
2034
2543
3052
2859
2395
2181
1949
1791
1777
1770
1750
1761
1743
1735
1750
1746
1747
1770
1778
1808
1795
1808
1815
1829
1840
1840
1856
1878
1891
1893
1913
1931
1961
1989
2000
2007
2039
2066
2070
2082
2091
2062
2031
1995
1950
1904
1855
1827
1804
1793
1776
1769
1778
1788
1779
1786
1783
1782
1787
1797
1803
1810
1820
1819
1821
1819
1825
1836
1851
1842
1854
1854
1858
1859
1863
1865
1870
1871
1869
1864
1873
1885
1872
1872
1884
1886
1883
1886
1892
1889
1888
1902
1901
1915
1904
1886
1906
1927
1930
1918
1906
1906
1904
1921
1922
1926
1934
1943
1939
1942
1952
1949
1941
1939
1947
1937
1950
1948
1949
1951
1937
1950
1939
1984
1995
2001
2017
2047
2091
2093
2064
2034
2007
1969
1936
1931
1904
1903
1914
1906
1899
1904
1903
1891
1904
1889
1893
1861
1775
1731
1795
2064
2682
3321
3311
2711
2254
2000
1914
1899
1875
1856
1831
1830
1830
1826
1832
1834
1834
1843
1856
1858
1863
1872
1877
1889
1914
1916
1924
1936
1952
1970
1998
2000
2025
2046
2071
2080
2107
2117
2135
2131
2113
2075
2032
1987
1936
1890
1847
1813
1789
1777
1781
1775
1765
1768
1772
1776
1792
1791
1759
1802
1807
1805
1858
1821
1822
1830
1831
1831
1835
1840
1840
1845
1855
1850
1861
1868
1867
1862
1872
1868
1878
1885
1872
1872
1893
1893
1884
1882
1895
1893
1891
1895
1898
1902
1915
1911
1919
1927
1923
1920
1929
1926
1933
1939
1939
1927
1936
1947
1949
1951
1946
1949
1944
1950
1949
1943
1962
1962
1957
1961
1959
1957
1972
1966
1967
1966
1968
1969
1968
1971
1982
1984
2005
1994
1982
1994
2017
2017
2016
2037
2083
2110
2112
2095
2064
2029
1985
1951
1942
1937
1934
1933
1923
1923
1922
1921
1925
1937
1937
1921
1843
1764
1749
1931
2304
2926
3573
3244
2567
2224
2006
1952
1922
1901
1878
1861
1857
1855
1854
1855
1856
1857
1856
1873
1881
1882
1897
1894
1907
1926
1927
1936
1955
1967
1971
1991
2019
2032
2064
2090
2111
2127
2132
2138
2146
2128
2097
2055
1999
1936
1875
1845
1811
1785
1776
1773
1749
1747
1748
1754
1765
1770
1762
1763
1776
1773
1776
1781
1789
1783
1798
1790
1787
1796
1804
1797
1794
1810
1803
1805
1808
1808
1808
1810
1803
1794
1808
1818
1824
1815
1815
1816
1818
1819
1821
1828
1842
1840
1836
1839
1838
1840
1844
1840
1830
1855
1857
1852
1847
1846
1845
1855
1866
1857
1867
1865
1862
1858
1856
1849
1866
1882
1859
1840
1842
1855
1860
1858
1846
1852
1863
1871
1874
1872
1879
1883
1910
1943
1969
2000
1995
1946
1923
1899
1850
1831
1840
1840
1827
1833
1840
1840
1833
1839
1838
1849
1851
1785
1710
1698
1817
2128
2608
3113
2873
2474
2249
2018
1856
1833
1810
1803
1797
1781
1773
1761
1779
1792
1795
1783
1817
1815
1808
1815
1831
1825
1835
1856
1857
1869
1877
1910
1923
1922
1954
1978
1985
2004
2023
2010
2038
2037
2002
1991
1955
1914
1873
1843
1803
1785
1755
1743
1730
1734
1728
1744
1754
1728
1719
1744
1744
1744
1776
1776
1763
1744
1762
1767
1776
1788
1791
1776
1790
1817
1820
1807
1767
1746
1775
1807
1791
1780
1798
1808
1794
1775
1781
1804
1808
1810
1783
1803
1838
1841
1847
1853
1872
1911
1948
1962
1933
1904
1872
1850
1793
1781
1801
1795
1773
1776
1773
1764
1769
1778
1788
1787
1799
1756
1727
1680
1785
2018
2419
2939
2976
2487
2242
2032
1837
1799
1799
1793
1792
1804
1777
1767
1792
1803
1807
1799
1797
1811
1839
1843
1811
1850
1855
1876
1873
1875
1903
1933
1941
1943
1983
1989
1987
2007
2036
2037
2037
2047
2021
2000
1962
1917
1875
1837
1807
1786
1776
1776
1744
1755
1769
1762
1769
1776
1758
1767
1788
1770
1759
1776
1795
1799
1795
1806
1813
1814
1794
1802
1815
1811
1807
1825
1778
1808
1808
1829
1827
1861
1825
1800
1872
1797
1805
1829
1851
1850
1844
1862
1877
1883
1869
1931
1968
1979
1979
1943
1903
1877
1848
1814
1814
1814
1808
1799
1808
1799
1802
1808
1794
1806
1820
1808
1744
1685
1687
1795
2203
2714
3189
2893
2401
2169
1936
1821
1799
1804
1797
1777
1774
1787
1777
1771
1788
1791
1807
1808
1806
1809
1818
1835
1840
1840
1854
1871
1889
1904
1910
1922
1941
1973
1986
2005
2026
2043
2057
2055
2032
2019
1985
1936
1889
1854
1821
1794
1767
1747
1738
1745
1744
1742
1754
1759
1751
1751
1761
1763
1776
1790
1778
1781
1797
1795
1791
1796
1794
1803
1805
1808
1817
1814
1824
1811
1822
1823
1818
1809
1827
1819
1837
1830
1827
1831
1843
1840
1835
1840
1850
1841
1843
1851
1842
1846
1858
1865
1856
1870
1894
1903
1899
1904
1936
1983
2003
2007
1990
1966
1931
1904
1859
1837
1840
1835
1838
1835
1839
1833
1835
1842
1835
1840
1865
1840
1745
1694
1721
1907
2352
2975
3377
2815
2358
2074
1872
1845
1836
1814
1802
1792
1787
1793
1787
1785
1808
1809
1819
1831
1840
1841
1854
1869
1875
1886
1900
1904
1911
1934
1948
1968
2003
2015
2035
2064
2068
2074
2086
2091
2077
2047
2008
1963
1919
1878
1839
1815
1790
1776
1764
1768
1771
1766
1771
1783
1789
1794
1795
1803
1808
1822
1814
1813
1819
1835
1834
1847
1842
1850
1857
1856
1856
1856
1861
1867
1876
1878
1867
1859
1870
1872
1872
1887
1893
1882
1894
1890
1897
1907
1901
1910
1931
1931
1918
1924
1927
1935
1938
1951
1954
1958
1968
1959
1966
1955
1958
1965
1978
1973
1971
1974
1980
1986
1984
1995
1991
1985
1994
1993
1993
1998
2004
1989
1995
1994
2000
1994
2001
2000
2006
2006
2001
2014
2014
2013
2007
2023
2001
2003
2018
2010
2013
2023
2023
2010
2021
2026
2018
2005
2009
2016
2023
2026
2017
2035
2059
2065
2067
2084
2106
2125
2122
2096
2043
2016
1991
1973
1965
1968
1958
1959
1962
1955
1959
1968
1968
1958
1933
1853
1795
1830
2099
2609
3313
3610
2842
2374
2101
1976
1955
1930
1902
1872
1859
1858
1865
1870
1870
1867
1874
1879
1886
1893
1897
1890
1909
1921
1920
1931
1952
1952
1961
1973
2000
2025
2045
2047
2062
2081
2096
2102
2112
2117
2102
2074
2029
1984
1943
1904
1847
1823
1801
1786
1777
1773
1771
1767
1776
1789
1786
1786
1787
1798
1796
1797
1793
1807
1817
1819
1822
1825
1822
1821
1825
1819
1826
1831
1835
1824
1830
1840
1840
1834
1836
1829
1826
1836
1841
1834
1849
1840
1840
1855
1851
1842
1856
1849
1852
1855
1860
1859
1855
1859
1860
1863
1869
1871
1857
1856
1866
1860
1866
1872
1871
1867
1874
1872
1870
1866
1863
1863
1872
1878
1872
1878
1871
1869
1872
1872
1869
1871
1878
1872
1872
1884
1877
1878
1881
1882
1878
1888
1893
1883
1879
1886
1889
1890
1883
1873
1888
1902
1911
1934
1942
1930
1947
1968
1965
1946
1915
1885
1861
1851
1851
1846
1856
1853
1840
1842
1846
1851
1846
1856
1805
1726
1690
1740
2079
2642
3319
3344
2647
2241
1983
1887
1854
1811
1793
1783
1774
1760
1771
1770
1780
1788
1805
1806
1810
1821
1831
1839
1850
1851
1865
1878
1886
1904
1922
1931
1955
1983
1990
2005
2032
2045
2058
2074
2071
2063
2036
2001
1947
1904
1858
1817
1789
1762
1742
1733
1745
1737
1733
1731
1737
1747
1750
1750
1744
1757
1755
1766
1776
1791
1789
1776
1791
1783
1792
1799
1803
1802
1808
1796
1806
1809
1825
1828
1818
1817
1813
1813
1838
1830
1836
1842
1829
1839
1846
1845
1842
1849
1856
1825
1853
1843
1846
1859
1867
1860
1862
1871
1874
1878
1885
1870
1861
1875
1874
1887
1889
1888
1888
1890
1883
1872
1890
1900
1902
1902
1907
1904
1893
1904
1905
1906
1907
1916
1921
1921
1911
1913
1920
1931
1930
1923
1922
1914
1930
1939
1935
1924
1927
1930
1937
1952
1968
1968
1978
1975
2000
2030
2046
2034
2002
1973
1937
1923
1920
1905
1897
1892
1895
1879
1888
1885
1882
1900
1888
1886
1810
1751
1744
1851
2268
2865
3374
2995
2485
2213
1974
1883
1872
1863
1868
1819
1823
1826
1827
1835
1840
1845
1849
1885
1850
1861
1878
1894
1888
1909
1916
1917
1934
1952
1970
1984
2021
2042
2064
2082
2102
2117
2115
2128
2115
2130
2098
2059
2005
1965
1915
1879
1854
1825
1802
1791
1791
1806
1819
1822
1824
1815
1808
1811
1833
1824
1835
1843
1853
1853
1850
1860
1883
1886
1872
1862
1886
1899
1903
1888
1905
1906
1905
1891
1921
1905
1893
1902
1904
1904
1916
1909
1918
1914
1915
1951
1929
1920
1919
1923
1936
1931
1927
1941
1945
1947
1950
1942
1957
1959
1937
1938
1962
1957
1956
1968
1966
1996
2003
2000
2032
2078
2098
2078
2055
2031
1984
1947
1922
1907
1911
1926
1921
1915
1920
1907
1904
1913
1920
1903
1872
1808
1773
1809
2023
2417
2992
3270
2706
2417
2199
1991
1901
1893
1866
1854
1855
1841
1844
1840
1845
1847
1879
1892
1877
1879
1890
1879
1889
1914
1906
1911
1936
1954
1960
1968
1985
2007
2023
2037
2063
2087
2094
2110
2117
2101
2070
2029
1982
1941
1905
1885
1835
1798
1780
1774
1774
1778
1779
1776
1777
1789
1785
1789
1795
1787
1799
1808
1806
1794
1814
1825
1821
1850
1853
1850
1855
1871
1870
1869
1875
1869
1862
1853
1849
1846
1859
1859
1858
1857
1857
1851
1871
1871
1871
1870
1872
1867
1872
1872
1872
1877
1883
1873
1867
1867
1878
1876
1878
1889
1874
1840
1881
1885
1882
1898
1899
1905
1909
1863
1923
1942
1979
2000
2029
1994
1967
1943
1898
1853
1849
1853
1837
1840
1831
1819
1817
1810
1823
1828
1840
1819
1787
1719
1677
1735
1987
2447
3095
3049
2580
2288
2003
1847
1808
1794
1785
1772
1763
1751
1751
1753
1771
1770
1771
1776
1785
1786
1805
1811
1808
1822
1842
1845
1861
1869
1886
1904
1934
1941
1968
1991
2001
2013
2042
2043
2042
2032
2006
1962
1911
1863
1808
1776
1744
1728
1712
1711
1697
1687
1712
1708
1710
1710
1727
1723
1730
1733
1733
1738
1745
1749
1758
1767
1763
1764
1779
1783
1778
1787
1781
1786
1791
1783
1789
1797
1798
1798
1808
1819
1808
1808
1815
1810
1819
1781
1822
1823
1840
1838
1830
1827
1838
1828
1829
1853
1842
1843
1854
1847
1845
1843
1849
1852
1870
1874
1856
1862
1868
1865
1872
1878
1874
1866
1872
1873
1867
1886
1875
1874
1882
1882
1885
1891
1887
1881
1893
1889
1882
1886
1895
1885
1886
1899
1889
1888
1893
1888
1895
1904
1903
1904
1903
1888
1885
1900
1904
1901
1900
1895
1888
1902
1915
1901
1904
1909
1902
1890
1916
1905
1902
1909
1920
1910
1917
1937
1954
1967
1979
1955
1936
1938
1931
1904
1893
1882
1878
1879
1870
1867
1856
1873
1871
1870
1886
1860
1770
1715
1733
1918
2475
3133
3501
2929
2365
2077
1935
1903
1855
1834
1816
1803
1805
1808
1804
1805
1815
1802
1819
1833
1840
1845
1865
1866
1870
1885
1901
1907
1915
1931
1946
1965
2000
2009
2029
2057
2062
2078
2103
2117
2115
2111
2076
2033
1979
1926
1873
1835
1803
1779
1776
1770
1759
1758
1762
1763
1779
1781
1771
1770
1790
1799
1802
1812
1808
1796
1805
1815
1811
1825
1838
1839
1849
1850
1842
1837
1841
1847
1842
1858
1856
1852
1856
1861
1854
1866
1869
1858
1866
1872
1869
1873
1879
1873
1879
1885
1891
1881
1901
1901
1898
1904
1894
1891
1900
1904
1904
1902
1911
1905
1914
1921
1906
1909
1909
1909
1907
1908
1913
1907
1920
1934
1917
1923
1931
1929
1935
1936
1933
1926
1934
1936
1937
1935
1934
1933
1937
1937
1936
1936
1936
1934
1943
1949
1942
1946
1962
1955
1935
1942
1951
1939
1947
1947
1946
1959
1958
1962
1990
1996
2032
2032
1999
1983
1986
1988
1945
1920
1924
1931
1918
1933
1931
1866
1923
1920
1917
1923
1919
1840
1749
1766
1927
2371
3179
3617
3023
2508
2141
1976
1943
1926
1879
1856
1840
1830
1822
1834
1840
1842
1856
1840
1853
1866
1875
1886
1892
1898
1903
1909
1923
1923
1950
1969
1984
2006
2011
2031
2063
2082
2091
2098
2115
2117
2106
2069
2014
1964
1913
1866
1822
1794
1778
1766
1763
1763
1752
1748
1757
1771
1765
1759
1760
1765
1779
1778
1776
1782
1790
1792
1802
1798
1799
1806
1808
1808
1810
1813
1807
1803
1808
1811
1805
1819
1826
1818
1825
1835
1823
1810
1823
1835
1839
1841
1826
1819
1843
1850
1851
1846
1840
1840
1856
1855
1846
1847
1871
1872
1857
1854
1847
1862
1872
1872
1866
1869
1873
1867
1869
1872
1869
1873
1890
1870
1883
1859
1867
1867
1872
1875
1875
1877
1875
1874
1878
1870
1872
1877
1878
1869
1878
1906
1872
1877
1879
1869
1871
1866
1868
1859
1861
1854
1882
1899
1906
1929
1977
2006
1998
1930
1951
1914
1882
1854
1851
1856
1847
1842
1846
1840
1838
1840
1853
1859
1836
1775
1709
1695
1811
2160
2781
3230
2864
2480
2187
1950
1842
1834
1820
1821
1801
1783
1782
1776
1792
1808
1796
1807
1827
1830
1825
1835
1845
1855
1875
1887
1890
1902
1904
1936
1958
1973
1983
2010
2043
2064
2070
2091
2112
2103
2105
2069
2032
1995
1950
1903
1867
1840
1827
1815
1798
1787
1792
1792
1796
1803
1790
1794
1808
1815
1805
1830
1829
1840
1840
1854
1846
1826
1827
1840
1835
1834
1866
1872
1889
1862
1858
1856
1808
1861
1843
1842
1856
1847
1859
1862
1856
1866
1869
1869
1882
1897
1886
1885
1910
1892
1879
1891
1897
1891
1891
1891
1911
1933
1945
1947
1959
1987
2015
2031
2025
1991
1935
1920
1888
1871
1871
1852
1846
1855
1853
1856
1867
1851
1856
1846
1849
1840
1776
1730
1743
1861
2295
2847
3196
2782
2399
2179
1965
1859
1843
1840
1827
1811
1795
1802
1811
1829
1840
1836
1841
1837
1847
1847
1857
1872
1887
1903
1904
1901
1920
1889
1945
1985
2011
2017
2043
2064
2066
2080
2101
2097
2076
2064
2033
1982
1936
1899
1858
1834
1797
1776
1766
1727
1776
1772
1783
1775
1766
1766
1782
1794
1786
1790
1789
1751
1810
1872
1814
1823
1827
1815
1821
1831
1829
1834
1826
1829
1833
1824
1825
1846
1840
1840
1802
1835
1835
1833
1840
1840
1843
1841
1846
1839
1847
1840
1835
1846
1856
1843
1851
1857
1855
1858
1859
1877
1894
1904
1919
1939
1995
2005
1994
1959
1920
1882
1858
1827
1808
1809
1813
1808
1808
1808
1808
1810
1827
1821
1824
1814
1741
1663
1661
1785
2186
2768
3248
2890
2411
2160
1930
1819
1808
1797
1785
1764
1771
1773
1776
1776
1779
1786
1798
1802
1809
1823
1837
1844
1856
1862
1877
1887
1907
1923
1939
1959
1979
2007
2025
2042
2070
2096
2097
2108
2098
2080
2040
1999
1934
1891
1856
1811
1786
1778
1775
1772
1763
1769
1765
1775
1779
1776
1787
1797
1791
1802
1826
1828
1813
1825
1822
1826
1838
1836
1841
1851
1854
1845
1853
1857
1853
1844
1853
1845
1850
1856
1859
1856
1866
1855
1855
1866
1871
1866
1872
1872
1866
1891
1889
1887
1887
1894
1890
1889
1885
1882
1881
1892
1885
1890
1904
1904
1903
1901
1895
1895
1906
1918
1904
1899
1907
1914
1915
1920
1901
1905
1920
1921
1915
1911
1907
1913
1924
1923
1918
1918
1921
1927
1922
1920
1921
1921
1917
1927
1921
1922
1927
1927
1938
1936
1934
1927
1936
1926
1921
1922
1927
1924
1927
1925
1922
1925
1931
1925
1926
1915
1920
1927
1930
1917
1923
1929
1931
1926
1927
1927
1945
1971
1980
1998
1998
1953
1937
1947
1940
1914
1897
1888
1885
1877
1884
1883
1879
1885
1888
1888
1890
1834
1762
1729
1834
2161
2745
3426
3257
2640
2255
2011
1935
1909
1872
1843
1824
1797
1808
1813
1825
1809
1824
1838
1840
1847
1855
1851
1866
1875
1883
1890
1906
1920
1919
1935
1957
1978
1993
2014
2031
2060
2065
2087
2110
2115
2110
2091
2064
2017
1973
1927
1857
1828
1805
1787
1769
1773
1775
1766
1776
1777
1773
1782
1793
1791
1795
1805
1798
1811
1826
1831
1819
1836
1841
1835
1840
1837
1851
1855
1854
1846
1850
1861
1865
1863
1870
1869
1859
1871
1870
1877
1875
1873
1878
1889
1904
1904
1899
1897
1907
1913
1909
1915
1926
1933
1921
1920
1931
1933
1934
1935
1936
1946
1951
1940
1929
1936
1941
1942
1941
1942
1947
1947
1953
1950
1950
1964
1948
1955
1959
1961
1957
1966
1968
1968
1970
1975
1968
1968
1965
1968
1974
1982
1973
1962
1974
1981
1968
1968
1969
1963
1968
1981
1974
1967
1978
1971
1968
1981
1979
1979
1979
1971
1969
1978
1986
2001
2036
2063
2036
2016
2009
2000
1987
1968
1949
1938
1947
1951
1937
1941
1931
1931
1950
1950
1941
1905
1815
1776
1825
2065
2683
3408
3513
2853
2339
2080
1971
1939
1903
1872
1854
1845
1840
1829
1845
1856
1842
1857
1856
1859
1873
1874
1879
1881
1904
1919
1911
1917
1935
1947
1974
1984
2000
2019
2039
2059
2091
2103
2105
2107
2118
2103
2060
2012
1945
1895
1856
1815
1778
1771
1751
1744
1744
1754
1746
1744
1758
1759
1760
1766
1767
1774
1783
1791
1792
1801
1812
1803
1793
1809
1807
1809
1828
1808
1808
1815
1820
1819
1825
1826
1820
1830
1836
1833
1831
1837
1831
1831
1829
1819
1829
1836
1834
1838
1838
1830
1776
1855
1856
1846
1842
1843
1840
1851
1847
1843
1847
1853
1856
1859
1857
1850
1843
1857
1857
1859
1866
1866
1866
1856
1861
1861
1862
1859
1857
1858
1871
1861
1865
1872
1866
1866
1877
1873
1871
1872
1873
1866
1872
1872
1872
1870
1874
1865
1872
1874
1867
1877
1883
1879
1873
1875
1878
1875
1899
1903
1904
1904
1927
1964
2005
2001
1989
1958
1923
1897
1869
1866
1842
1842
1842
1841
1841
1840
1840
1831
1843
1850
1839
1761
1696
1691
1827
2208
2928
3392
2935
2477
2123
1926
1861
1827
1808
1794
1767
1759
1776
1789
1789
1792
1802
1810
1823
1827
1831
1839
1847
1845
1857
1873
1887
1917
1938
1939
1946
1967
1995
2023
2057
2064
2081
2100
2117
2116
2112
2078
2038
2002
1955
1898
1859
1834
1808
1803
1790
1762
1762
1794
1790
1773
1785
1792
1799
1796
1797
1814
1835
1827
1814
1834
1839
1835
1831
1843
1856
1850
1856
1843
1850
1857
1859
1861
1872
1861
1858
1866
1857
1851
1859
1870
1874
1881
1874
1866
1874
1893
1889
1883
1885
1885
1883
1894
1914
1883
1891
1903
1904
1904
1906
1895
1897
1906
1904
1895
1907
1904
1904
1933
1931
1920
1934
1950
1975
2027
2060
2042
2000
1982
1936
1907
1899
1883
1865
1872
1877
1865
1856
1856
1856
1871
1872
1859
1846
1791
1715
1727
1872
2226
2880
3281
2843
2467
2199
1977
1856
1834
1840
1826
1818
1814
1809
1803
1808
1815
1822
1837
1838
1841
1854
1857
1862
1865
1872
1891
1904
1920
1936
1953
1971
1998
2015
2025
2037
2066
2096
2096
2095
2097
2082
2054
2025
1973
1900
1856
1827
1805
1787
1773
1763
1758
1753
1749
1750
1762
1771
1766
1772
1782
1791
1793
1792
1791
1789
1792
1803
1808
1823
1813
1798
1803
1810
1808
1822
1826
1807
1809
1822
1821
1815
1823
1823
1814
1825
1834
1842
1829
1822
1821
1831
1827
1830
1841
1850
1846
1843
1843
1847
1845
1845
1849
1856
1867
1872
1877
1875
1875
1901
1951
1989
1999
1984
1952
1919
1883
1853
1835
1834
1830
1806
1810
1809
1808
1808
1822
1830
1840
1822
1785
1698
1654
1702
1926
2375
2985
3117
2631
2320
2082
1864
1814
1815
1795
1781
1759
1744
1763
1771
1770
1779
1786
1824
1813
1821
1824
1827
1841
1881
1818
1840
1778
1845
1873
1891
1904
1936
1957
1975
2000
2025
2025
2038
2053
2037
2017
1984
1936
1890
1847
1801
1774
1754
1739
1725
1728
1740
1744
1744
1744
1737
1748
1770
1773
1785
1803
1808
1814
1822
1827
1826
1826
1839
1845
1853
1866
1861
1867
1883
1885
1890
1903
1906
1904
1915
1908
1904
1908
1907
1914
1923
1921
1924
1934
1936
1931
1949
1950
1957
1958
1966
1968
1975
1984
1985
1985
1995
1984
1990
1996
2000
2000
2001
2012
2011
2015
2025
2028
2029
2032
2025
2015
2035
2033
2026
2034
2035
2033
2037
2044
2059
2064
2063
2061
2064
2065
2065
2007
2070
2085
2085
2095
2112
2143
2190
2201
2179
2160
2137
2094
2047
2033
2017
2013
2010
2015
2012
2007
2003
2013
2024
2026
2023
2004
1920
1845
1879
2094
2559
3264
3707
3010
2510
2203
2032
2006
1984
1949
1936
1929
1913
1911
1926
1935
1920
1920
1930
1941
1951
1954
1947
1951
1970
1966
1936
2011
2016
2010
2034
2064
2081
2096
2112
2122
2149
2171
2201
2192
2192
2182
2147
2113
2061
1999
1937
1902
1860
1841
1827
1811
1810
1814
1810
1815
1820
1819
1818
1824
1829
1815
1828
1826
1826
1833
1841
1828
1839
1840
1837
1845
1840
1840
1843
1845
1840
1833
1846
1840
1840
1841
1843
1846
1840
1845
1842
1847
1847
1847
1850
1843
1837
1838
1851
1845
1847
1855
1850
1847
1863
1863
1854
1857
1862
1858
1860
1859
1854
1857
1858
1854
1858
1856
1857
1853
1856
1863
1851
1856
1863
1847
1851
1850
1851
1850
1856
1862
1862
1862
1857
1855
1859
1861
1840
1815
1856
1851
1859
1867
1866
1859
1847
1843
1850
1857
1856
1862
1866
1866
1866
1883
1901
1891
1931
1974
1984
1983
1957
1923
1897
1856
1808
1808
1823
1808
1812
1808
1798
1798
1809
1811
1802
1802
1775
1683
1629
1655
1885
2377
3055
3453
2818
2336
2017
1849
1811
1781
1750
1738
1731
1713
1744
1712
1716
1736
1751
1744
1740
1767
1765
1776
1791
1792
1799
1813
1819
1841
1862
1874
1889
1921
1938
1954
1987
2001
2015
2022
2042
2043
2035
2018
1968
1923
1883
1837
1780
1755
1731
1712
1713
1711
1702
1707
1724
1715
1724
1729
1737
1744
1747
1747
1742
1755
1761
1758
1774
1776
1776
1776
1787
1787
1787
1797
1841
1791
1805
1793
1790
1806
1805
1806
1808
1808
1818
1838
1840
1823
1839
1847
1843
1850
1858
1852
1855
1861
1859
1869
1878
1878
1882
1899
1902
1898
1897
1903
1907
1917
1914
1913
1918
1922
1922
1933
1929
1934
1936
1947
1955
1942
1957
1971
1962
1958
1963
1968
1965
1971
1969
1977
1984
1985
1983
1984
1990
1991
1999
2001
1999
2003
2022
2035
2045
2039
2053
2096
2133
2147
2145
2128
2096
2067
2023
1995
1985
1985
1979
1973
1982
1992
1987
1991
1994
2000
2000
1968
1872
1831
1876
2100
2695
3403
3483
2875
2438
2159
2023
2000
1973
1939
1929
1925
1920
1922
1918
1925
1936
1943
1952
1947
1965
1969
1968
1991
2000
2006
2023
2032
2042
2064
2079
2086
2112
2143
2165
2176
2199
2225
2235
2224
2210
2206
2190
2160
2086
2034
1993
1936
1909
1901
1881
1862
1859
1869
1866
1871
1851
1851
1872
1882
1863
1856
1869
1875
1881
1878
1882
1884
1901
1892
1886
1894
1889
1873
1884
1885
1877
1867
1872
1894
1892
1879
1871
1871
1878
1872
1871
1877
1885
1882
1877
1872
1863
1875
1879
1874
1872
1875
1883
1889
1872
1856
1862
1879
1873
1859
1854
1871
1872
1874
1867
1872
1870
1920
1872
1885
1886
1905
1906
1919
1961
1984
1997
1968
1919
1899
1869
1830
1823
1818
1805
1805
1807
1787
1776
1788
1806
1808
1803
1778
1712
1667
1664
1763
2162
2693
3131
2820
2369
2150
1942
1801
1771
1773
1762
1746
1757
1758
1744
1753
1774
1771
1758
1775
1782
1778
1792
1805
1811
1808
1797
1840
1843
1856
1895
1889
1907
1922
1947
1968
1963
1980
2000
2020
2014
2016
1991
1959
1905
1888
1808
1802
1759
1727
1718
1703
1699
1712
1726
1715
1698
1702
1718
1721
1728
1733
1744
1729
1738
1760
1750
1745
1743
1747
1761
1756
1750
1771
1779
1771
1759
1762
1767
1758
1754
1771
1761
1770
1772
1759
1779
1792
1787
1779
1776
1774
1782
1794
1793
1776
1779
1778
1797
1797
1795
1808
1818
1822
1822
1839
1857
1904
1936
1936
1917
1886
1840
1806
1850
1786
1759
1745
1766
1765
1763
1771
1760
1757
1766
1774
1776
1759
1667
1621
1680
1894
2387
2963
3027
2555
2224
2016
1833
1779
1771
1761
1744
1742
1729
1735
1747
1746
1744
1765
1790
1795
1807
1811
1806
1807
1822
1835
1843
1861
1872
1873
1902
1924
1942
1954
1975
1990
2000
2017
2030
2034
2033
2014
1975
1943
1887
1842
1813
1787
1754
1740
1726
1719
1717
1723
1720
1718
1728
1734
1738
1744
1734
1739
1750
1755
1749
1766
1769
1767
1776
1788
1776
1781
1789
1787
1776
1783
1793
1790
1792
1783
1786
1798
1805
1795
1789
1797
1799
1817
1822
1815
1807
1808
1815
1833
1822
1822
1823
1820
1819
1824
1838
1845
1841
1856
1855
1853
1851
1863
1840
1848
1867
1873
1879
1886
1894
1919
1978
2000
1996
1970
1920
1891
1854
1839
1821
1816
1818
1815
1821
1823
1814
1821
1829
1830
1825
1830
1764
1682
1680
1794
2191
2774
3304
2997
2460
2179
1947
1849
1843
1819
1793
1793
1789
1778
1793
1799
1803
1815
1826
1827
1841
1840
1840
1856
1881
1889
1893
1917
1915
1939
1957
1967
1983
2009
2039
2047
2074
2085
2091
2112
2119
2097
2070
2035
1973
1927
1898
1860
1807
1795
1776
1769
1776
1769
1767
1767
1775
1776
1781
1773
1776
1782
1799
1797
1798
1808
1811
1819
1833
1822
1821
1838
1826
1823
1829
1835
1838
1850
1849
1842
1840
1846
1840
1842
1847
1855
1867
1861
1859
1852
1865
1871
1872
1873
1879
1877
1886
1886
1884
1888
1895
1891
1888
1895
1907
1904
1912
1904
1902
1904
1915
1917
1919
1911
1909
1919
1923
1917
1914
1934
1934
1923
1936
1936
1925
1937
1936
1936
1953
1949
1969
1979
1986
2000
2035
2081
2095
2080
2052
2019
1982
1948
1933
1917
1925
1922
1927
1908
1920
1918
1927
1934
1936
1927
1920
1840
1771
1803
2000
2458
3251
3601
2955
2450
2111
1968
1954
1936
1909
1885
1875
1867
1862
1872
1879
1882
1889
1904
1901
1911
1924
1934
1945
1951
1957
1977
1985
1991
1999
2022
2054
2075
2101
2112
2125
2154
2169
2178
2192
2183
2165
2224
2116
2066
1966
1962
1923
1889
1871
1856
1842
1851
1854
1840
1859
1855
1853
1858
1870
1865
1867
1870
1872
1875
1885
1885
1872
1885
1889
1889
1890
1903
1895
1903
1895
1879
1890
1898
1889
1891
1898
1894
1886
1898
1892
1899
1906
1906
1901
1903
1894
1890
1889
1899
1899
1909
1909
1901
1899
1911
1910
1898
1909
1904
1899
1903
1904
1904
1907
1907
1904
1904
1909
1903
1914
1914
1907
1904
1904
1902
1904
1904
1905
1904
1918
1911
1911
1933
1943
1943
1968
2011
2023
2022
2006
1973
1937
1908
1879
1866
1866
1861
1850
1850
1856
1867
1862
1861
1869
1857
1863
1805
1709
1696
1776
2096
2767
3377
3152
2615
2199
1957
1886
1869
1827
1795
1791
1778
1778
1790
1786
1805
1814
1807
1808
1827
1833
1810
1821
1838
1851
1867
1867
1875
1913
1929
1939
1955
1979
2002
2030
2037
2066
2095
2126
2142
2159
2140
2099
2055
1987
1938
1887
1845
1811
1793
1776
1774
1763
1773
1788
1778
1775
1774
1776
1777
1779
1786
1782
1790
1800
1801
1806
1811
1805
1806
1808
1808
1798
1805
1794
1797
1812
1818
1805
1808
1803
1799
1808
1815
1819
1811
1802
1810
1833
1844
1822
1814
1827
1830
1827
1834
1847
1843
1827
1808
1809
1815
1826
1829
1828
1837
1840
1829
1852
1856
1862
1873
1890
1933
1982
1991
1967
1934
1909
1873
1840
1827
1809
1792
1808
1809
1798
1808
1820
1822
1830
1823
1829
1792
1707
1679
1744
1979
2416
2977
3007
2546
2286
2066
1855
1814
1823
1811
1803
1790
1791
1783
1781
1804
1821
1823
1825
1817
1825
1833
1844
1843
1870
1872
1873
1890
1907
1920
1939
1963
1973
1990
2011
2021
2034
2064
2078
2083
2082
2063
2015
1981
1936
1901
1875
1840
1806
1795
1785
1765
1766
1782
1781
1790
1793
1779
1790
1805
1798
1793
1808
1808
1824
1815
1817
1828
1830
1837
1821
1837
1843
1843
1809
1819
1834
1841
1856
1849
1838
1840
1850
1850
1844
1849
1845
1850
1865
1869
1872
1873
1861
1883
1914
1906
1903
1911
1950
1983
2011
2017
1986
1967
1936
1890
1863
1850
1840
1836
1846
1847
1846
1846
1845
1840
1840
1840
1842
