2.902770282453127990e-04
5.968059893097797707e-04
1.182003455177306700e-03
1.788096263240889243e-03
2.679822690172883361e-03
3.576192526481778485e-03
4.193893857987614736e-03
4.774447914478239033e-03
5.078655170854255718e-03
5.331784924084357648e-03
5.289994239692247073e-03
5.199447756842671270e-03
5.064788884912537099e-03
4.923164898917047408e-03
4.756002161348606844e-03
4.588775481591172989e-03
-4.876602920770067677e-03
-1.488996757179464163e-02
-3.381840267182867343e-02
-5.348288210029054912e-02
-8.227835051378779019e-02
-1.112896735211219568e-01
-1.313952128982004697e-01
-1.502562546200803817e-01
-1.602509816914084173e-01
-1.685182965323400728e-01
-1.673644093021801615e-01
-1.645760419713508949e-01
-1.604341208071550784e-01
-1.560739594022447219e-01
-1.510451470470608459e-01
-1.460189319512059936e-01
-1.411297613741589185e-01
-1.353771922076489886e-01
-1.300263418944300198e-01
-1.225931980303117952e-01
-1.156267807507610906e-01
-1.066471699516828575e-01
-9.693847993824218634e-02
-8.910080834905179104e-02
-8.164151068188989224e-02
-7.722337060195735847e-02
-7.205525596546638600e-02
-6.927849715807947450e-02
-6.455614982177104721e-02
-5.959931031192901990e-02
-4.991780176109011924e-02
-3.985779140384466263e-02
-2.502667791183334906e-02
-9.301644172579431186e-03
8.220388995535119966e-03
2.789470635203248824e-02
4.424434259466847319e-02
6.514909949385566668e-02
8.368803931551153930e-02
1.060809449778065683e-01
1.255438593232768019e-01
1.484869450545455993e-01
1.732757860131325933e-01
1.999289558365454078e-01
2.250683742030883117e-01
2.474890763794556914e-01
2.717694640112717219e-01
2.886296834588000793e-01
3.005887843090087608e-01
2.989125135239475983e-01
2.895305048779183710e-01
2.681801085629268999e-01
2.338258442879230237e-01
1.938135856871656404e-01
1.490557627032146060e-01
1.053009161446748360e-01
6.422067338722954599e-02
3.012179662795580470e-02
4.255684693927316679e-03
-1.935605198761504789e-02
-3.798076699836611114e-02
-5.036473980656135108e-02
-6.042468622161813879e-02
-6.844617592021468022e-02
-7.454993754615166224e-02
-7.464048402900090584e-02
-7.168727566529210782e-02
-6.948165621126371760e-02
-6.416263077002376525e-02
-5.679121838419280699e-02
-5.236140583862941567e-02
-4.751832985852112723e-02
-4.534985767950863028e-02
-4.154690539982622277e-02
-4.206696725003953446e-02
-4.368055200851238273e-02
-4.208089747817029408e-02
-4.041391351186245789e-02
-3.766965857011421448e-02
-3.610947301947511207e-02
-3.201630765373707221e-02
-2.676228994377306478e-02
-2.200743874182660778e-02
-1.973216814714473175e-02
-1.806286247614912258e-02
-1.414614666673266567e-02
-1.123472898741598863e-02
-8.787652245788759101e-03
-8.244373348691696329e-03
-5.298130099047587693e-03
-3.238778040392283151e-03
-1.715739764768392257e-03
-3.946897970743816378e-05
1.230503484875338860e-03
5.964459344625736015e-03
1.031301222609401318e-02
1.896832730463747160e-02
2.758881681285486887e-02
4.094094047613390519e-02
5.693284237018195887e-02
7.433866241949575737e-02
9.590497727051372490e-02
1.156278585989012064e-01
1.364651581777457101e-01
1.486958984765031355e-01
1.548739546524705302e-01
1.513472852307136962e-01
1.350907090021829238e-01
1.091433374040585713e-01
7.540664657618317834e-02
4.196713394842875589e-02
8.894450661450246931e-03
-2.200976044651611549e-02
-4.345999006311090929e-02
-5.598558685730230244e-02
-6.165751141118677725e-02
-6.224954610674211103e-02
-6.109798058127025033e-02
-5.055744129570494128e-02
-4.504803607001128807e-02
-3.792272438115684013e-02
-4.371537757884071118e-02
-4.611137681732217775e-02
-4.502946243250378899e-02
-2.260411684675985369e-02
5.069906528169140086e-02
1.820912987151759033e-01
3.513969697110595480e-01
5.412172233340920569e-01
7.237705412822748041e-01
8.636602138754885249e-01
8.988572569523998190e-01
8.253845903816913188e-01
6.977372666106771426e-01
5.275122005581667217e-01
3.525810391021675372e-01
1.913061446236342389e-01
8.467953510185172172e-02
2.636527844203729806e-02
-5.885521385230175345e-03
-1.861542819200547386e-02
-2.119716380556270832e-02
-1.739653323056971485e-02
-1.157137616724732317e-02
-2.711751076120461589e-03
7.506071257750468982e-03
1.729437822425756652e-02
2.531586792285421550e-02
2.855696766793060920e-02
3.294034611972514875e-02
3.493469044710357380e-02
3.979401836003048504e-02
4.330443584896716963e-02
5.078961176453169329e-02
6.216364303325055962e-02
7.498409632287453275e-02
8.998695201964168611e-02
1.053194897821691789e-01
1.244526581196899739e-01
1.427360825412382628e-01
1.604460459047388765e-01
1.793238267265304942e-01
1.974354450011331363e-01
2.146810674269439556e-01
2.284603847528978438e-01
2.395163424792992601e-01
2.459706815131916247e-01
2.442502983390492655e-01
2.348682896930199826e-01
2.152707804178079776e-01
1.883459711458459196e-01
1.529724785126120867e-01
1.118341931379553955e-01
6.868066809372359860e-02
2.759810363158972726e-02
-9.330931142905998441e-03
-4.215287032353265406e-02
-6.789825361376182478e-02
-8.725894901075186005e-02
-9.877460426546730288e-02
-1.079639114223552021e-01
-1.128464563821673095e-01
-1.144623628453294018e-01
-1.134686732386730457e-01
-1.097005465293181548e-01
-1.079290858520307872e-01
-1.027284673499018891e-01
-9.810595331519716966e-02
-9.318393937568240915e-02
-8.805529371889546375e-02
-8.356047344205563832e-02
-7.704112667688675642e-02
-7.160601600122444566e-02
-6.520739787985499469e-02
-5.909434943516513744e-02
-5.479687405684351142e-02
-4.979360045323304867e-02
-4.727455086626459330e-02
-4.422150920095264254e-02
-4.242450977209230589e-02
-3.932039060363443778e-02
-3.499969817842828179e-02
-3.111548623465101165e-02
-2.678318528600259762e-02
-2.366513588941402541e-02
-1.975770689875207264e-02
-1.756137426347838260e-02
-1.662804897872164830e-02
-1.511429752185243849e-02
-1.361447629311375064e-02
-1.089576010293868275e-02
-8.827121225529595272e-03
-5.291164985019919907e-03
-8.288485738182615461e-04
2.272948889951152164e-03
5.922668660195102436e-03
9.247349774055781471e-03
1.264632543794707437e-02
1.710632014446009791e-02
2.346082587674899744e-02
3.329092352764826540e-02
4.646427592991658750e-02
6.344986743062061563e-02
8.689211966990595393e-02
1.142278706717227421e-01
1.426408926489807494e-01
1.719593794547343013e-01
1.985614717750009139e-01
2.194335969241710815e-01
2.272275595632994027e-01
2.218528132095354266e-01
2.045816520321509790e-01
1.742439368681661382e-01
1.362794218026214255e-01
9.221811022520511048e-02
5.138628986942390259e-02
1.402773972756447135e-02
-1.444100316221727347e-02
-3.426603949689777107e-02
-4.612995045488079565e-02
-4.897171699354514740e-02
-4.642248524562684470e-02
-3.939700685837613237e-02
-3.232741608204450778e-02
-2.883325052592716417e-02
-3.198612549284353401e-02
-3.849154202988293999e-02
-4.126597913258186340e-02
-1.741975027750654673e-02
6.223097246916780428e-02
2.234455026257999299e-01
4.141572908491971683e-01
6.304147957596158980e-01
8.228492888618438306e-01
9.736300781485786038e-01
1.000000000000000000e+00
8.869074429208818611e-01
7.166893419824371669e-01
5.066052498386063307e-01
3.137969622815374726e-01
1.270970797597811841e-01
9.010535895806529721e-03
-5.318793270778628124e-02
-7.751475443337181581e-02
-8.556178288354278350e-02
-8.837568896594504009e-02
-8.008720322817755588e-02
-6.914965244088693008e-02
-5.061084050361003978e-02
-3.500898499722216589e-02
-2.153613269014450701e-02
-1.152494207354565550e-02
-8.047028450247833281e-03
-5.314382031941607652e-03
-6.115370149458246307e-03
-4.529645847246613691e-03
1.061019042541258344e-03
8.423144609617986764e-03
2.337956621261558232e-02
3.838242190938324916e-02
5.992784141820364091e-02
7.726633203155261476e-02
9.972882489231102432e-02
1.191173807455619127e-01
1.419583114705377791e-01
1.607223287625955122e-01
1.816780352805494880e-01
2.030400401189833837e-01
2.221476697049306892e-01
2.387571450461061506e-01
2.473567392121261144e-01
2.539387720038833729e-01
2.480764676655445589e-01
2.351259989133669126e-01
2.066410040907654677e-01
1.738144215007622617e-01
1.329013414808847271e-01
8.949242892092364177e-02
4.552862894042199876e-02
3.972436721844511444e-03
-2.928830464489985685e-02
-5.816102415047169627e-02
-7.937676159353430905e-02
-9.648076003335007145e-02
-1.055655904792583005e-01
-1.121917356600964782e-01
-1.149127735549616142e-01
-1.154955214317629625e-01
-1.142348357859352681e-01
-1.103761625937305924e-01
-1.085791631648708455e-01
-1.047622806570582960e-01
-1.029536727047563049e-01
-9.945486373926147594e-02
-9.722602723834992966e-02
-9.422174137149509632e-02
-9.138461824220947549e-02
-8.774186358603069946e-02
-8.392265937353048100e-02
-8.027293960328635292e-02
-7.573865034674336083e-02
-7.381627886470648603e-02
-7.141331451216120785e-02
-7.040801638206234392e-02
-6.943986552697953285e-02
-7.060071787120510145e-02
-7.147367883406362254e-02
-7.219108558279516141e-02
-7.167102373258329995e-02
-7.043587683832787383e-02
-6.736890494488573244e-02
-6.273013897736172406e-02
-5.885521385233878633e-02
-5.247052595909991457e-02
-4.651999684260213486e-02
-4.059500647767648462e-02
-3.583783357104230322e-02
-3.073937007520507678e-02
-2.498386415253714063e-02
-1.990861770358441293e-02
-1.619389020206456545e-02
-1.057072144663749949e-02
-6.256994135497397254e-03
-2.416894580800393617e-03
5.200618500885010502e-04
3.742587957657645802e-03
6.582032791631612506e-03
7.292474426297207782e-03
8.095784248499996588e-03
1.016442312590919508e-02
1.172228697185842376e-02
1.382575141959437384e-02
1.589903370637962832e-02
1.901940480765695191e-02
2.323097711250520642e-02
2.672514266862306004e-02
3.109691259697438398e-02
3.430086506703591137e-02
3.935985958316860767e-02
4.526627631058664780e-02
5.260982824015472681e-02
6.075204658255069223e-02
7.087235731950568274e-02
8.621186019609847206e-02
1.048760441865516924e-01
1.259664095764366221e-01
1.486680380201055029e-01
1.705570698228174309e-01
1.900501023870475314e-01
1.980948091325285543e-01
1.957336354643731124e-01
1.797347684562597414e-01
1.524222345013257207e-01
1.172507301759872916e-01
7.611940991539525858e-02
3.735158502764682892e-02
3.203952469914207301e-03
-2.215834954672045443e-02
-3.835456145335301020e-02
-4.568650485948030221e-02
-4.570043508761216511e-02
-4.173032007036191898e-02
-3.627199234781571663e-02
-3.084152508153004818e-02
-3.252243927596944889e-02
-4.293296309898222973e-02
-5.690033850470221921e-02
-6.493343672674158074e-02
-4.384539304154592282e-02
3.910447206741689968e-02
2.001402309630379850e-01
3.933966075249774041e-01
6.141582195309902570e-01
8.117236799946940806e-01
9.632636667145517695e-01
9.817537228533729232e-01
8.718372577880544316e-01
7.035670670832208096e-01
4.987555662868605189e-01
3.059333485016620946e-01
1.262751962999756339e-01
1.435510008852690714e-02
-4.181854484853731596e-02
-6.573674654895445002e-02
-7.770977762729608385e-02
-8.093462543955300126e-02
-7.589884797030552188e-02
-6.338253799486734397e-02
-4.991897250654415974e-02
-3.336986148726731743e-02
-1.653750249600229039e-02
-4.441421069173698104e-03
2.918382793212871869e-03
6.874567582333642075e-03
1.210304654072256493e-02
1.738956811632553015e-02
2.343993053442596994e-02
3.343719092289521716e-02
4.556809792004777593e-02
6.127675184210550074e-02
7.937676159326453873e-02
9.881871665435086605e-02
1.203223454787785279e-01
1.416843503172135199e-01
1.647156608266416578e-01
1.867648902528580845e-01
2.080874261115865653e-01
2.285091405511990581e-01
2.480323552763783468e-01
2.654613923725780977e-01
2.793707251610836884e-01
2.866423042453120074e-01
2.851610566540785374e-01
2.728885256709298046e-01
2.504399630382989628e-01
2.170097372292997540e-01
1.752608435215791682e-01
1.307700165768012901e-01
8.568251152708875051e-02
4.451868740086057513e-02
7.255327151226559704e-03
-2.094641969938191434e-02
-4.324407152726333220e-02
-5.874609373204703333e-02
-7.003190022260730174e-02
-7.547629771702298040e-02
-7.786533184144053821e-02
-7.776549853983619198e-02
-7.592903013127362544e-02
-7.238146536732016634e-02
-6.680473070566364524e-02
-6.211953064436941813e-02
-5.834211711626209607e-02
-5.623633096383650470e-02
-5.460649427254599814e-02
-5.496635849925493589e-02
-5.697463305476652140e-02
-5.945653536671931944e-02
-6.111887592365177618e-02
-6.200808881932748373e-02
-6.292980558064420471e-02
-6.228901508663091391e-02
-6.060577918750611331e-02
-5.946117877609904262e-02
-5.835140393502156325e-02
-5.605988140751987786e-02
-5.266090574363010285e-02
-5.076871642254195127e-02
-4.966822840021826307e-02
-4.782943828696448879e-02
-4.567721804077266856e-02
-4.502249731862871529e-02
-4.490176867483115786e-02
-4.437938511992888663e-02
-4.264971512703506079e-02
-3.977544472273233933e-02
-3.636718224008871070e-02
-3.181199764134774732e-02
-2.650690242823998746e-02
-2.031955943351826041e-02
-1.342409650882183704e-02
-8.984997144503415953e-03
-4.278901741015906507e-03
-1.931658300991480380e-03
1.288546101887645028e-03
3.080902121372375204e-03
3.912072399835831923e-03
5.356172716052969712e-03
5.390998286377869479e-03
6.136265491371377737e-03
4.543576075092405943e-03
2.653708458694481118e-03
1.787712608042809357e-04
-1.964162166634759576e-03
-3.345576456264726800e-03
-4.987021670998436837e-03
-5.534943977474638191e-03
-5.024168946014642353e-03
-4.919692235036223805e-03
-4.706095403697906250e-03
-4.622514034915542122e-03
-3.552208173538953014e-03
-2.444755037149873734e-03
-3.477913623509530476e-03
-2.783723921664657888e-03
-3.032146323328009652e-03
-1.028515177197000807e-03
-3.482557053927745654e-05
1.527681684786117485e-03
5.843730700616653340e-03
1.064501599633063504e-02
1.542540594985129451e-02
1.934676516864249074e-02
2.502101142721663285e-02
3.188397048627474722e-02
3.985438268172654397e-02
4.795713204441728883e-02
6.334539071946877764e-02
8.123876875335568626e-02
1.038939631032575611e-01
1.268950914517358308e-01
1.522690019918133408e-01
1.747407816713248685e-01
1.890076569818547325e-01
1.917635204470437837e-01
1.827042287527104181e-01
1.629116962836673066e-01
1.320469541554059045e-01
9.628109342982267560e-02
5.945653536630853692e-02
2.581503443065760045e-02
6.361470844116836904e-04
-1.835307556242749341e-02
-2.704321621129724199e-02
-2.843159561499240470e-02
-2.561304612321252047e-02
-1.622639406780843063e-02
-1.035480291071600584e-02
-7.155493850032762677e-03
-1.617067315528560728e-02
-3.183985809764039443e-02
-4.155154880942841383e-02
-2.937885112788359704e-02
4.396844338964867732e-02
1.969060963319535229e-01
3.781824767014889677e-01
5.992412669076230269e-01
7.935215152371704050e-01
9.541370455841813314e-01
9.806671650591073375e-01
8.783798216000375803e-01
7.273390013881961824e-01
5.259009375041547862e-01
3.393380355590191466e-01
1.590089107023704706e-01
4.923639132773864613e-02
-9.152159882107579678e-03
-3.908822013498854803e-02
-5.348278920338433301e-02
-6.182931755836313520e-02
-6.361006505440680581e-02
-6.110726740025596015e-02
-5.413750992552929936e-02
-4.660125650681751913e-02
-3.711012774043351281e-02
-3.370186525778687270e-02
-3.132908306619237859e-02
-3.214864482121430195e-02
-3.098082736292567807e-02
-3.041433141894261949e-02
-2.679479380965014632e-02
-1.772389359187253807e-02
-8.193295845784832540e-03
5.077568153399916219e-03
1.742439368657820037e-02
3.114334669063392041e-02
4.546129950430677358e-02
6.284854591611442609e-02
8.161488491285859292e-02
1.026727464371066795e-01
1.248496696211847945e-01
1.501098166315284754e-01
1.722983483390488069e-01
1.929591983615718542e-01
2.089093095712253600e-01
2.184724111829546012e-01
2.199350851366763393e-01
2.106947004766442089e-01
1.930242060928445691e-01
1.648526414031862286e-01
1.311647063737658991e-01
9.586086488118732152e-02
5.981639959298968440e-02
2.897487451161314884e-02
2.530658110158735298e-03
-1.720615344635856303e-02
-3.164019149445803508e-02
-4.183015337206644202e-02
-4.601618692534496791e-02
-4.820091103717569908e-02
-4.617406284416042395e-02
-4.091075831544161573e-02
-3.317483829352629865e-02
-2.517424393712422784e-02
-1.765192074654635401e-02
-9.616500819817531617e-03
-4.963804624164612836e-03
-2.214906273037808068e-03
-1.523038275881617894e-03
9.751159665819494665e-05
3.668293405163749652e-04
4.039766155328781494e-04
7.847361844366863718e-04
1.961840461482435450e-03
3.106440872886489027e-03
3.073937007249474135e-03
3.949219674793258937e-03
4.466959820319037038e-03
3.410584187071922981e-03
4.552862893790915813e-03
3.071615302557340055e-03
5.539587386381627544e-03
3.605607380900183179e-03
3.770448413781474391e-03
4.694486879782720085e-03
2.437789922610031444e-03
2.563161975784271091e-03
-2.330991507468301461e-03
-3.380402026650066501e-03
-6.746873824902143574e-03
-7.712702975299686597e-03
-9.486485357274648464e-03
-9.765089919890810460e-03
-9.465590015079385078e-03
-8.525299616258981417e-03
-8.237408234889812345e-03
-7.619834787764045644e-03
-6.270924363772952502e-03
-5.395641696229169434e-03
-4.455351297405382195e-03
-3.603285676746103942e-03
-2.653708459168514690e-03
-3.178413718760444116e-03
-3.169126900005349735e-03
-4.594653578716113851e-03
-5.126323952370008714e-03
-6.535598698261618766e-03
-7.283187607941418555e-03
-7.557148761180682364e-03
-7.858970370677969067e-03
-6.530955288886318259e-03
-5.936598888641671061e-03
-4.146564573848352669e-03
-2.544588338816146985e-03
-1.694844422845321729e-03
-4.202285488846499461e-04
2.553875129577002685e-05
1.464995658136431823e-03
2.607274364852030669e-03
5.435110675386154930e-03
1.021782233359229582e-02
1.723401390209130385e-02
2.595665841659812456e-02
3.880961557186194538e-02
5.448576562827832370e-02
7.398576330657620492e-02
9.438890410867802061e-02
1.137681731431764848e-01
1.311879234206193012e-01
1.411944706278427386e-01
1.417609665718225498e-01
1.308930669251866241e-01
1.097376938040226235e-01
8.107392772041283058e-02
4.663376037193445872e-02
1.249077122358125715e-02
-1.743832391523759268e-02
-4.126597913280478924e-02
-5.691426873296397820e-02
-6.414405713279780485e-02
-6.299249160732847685e-02
-5.846748916953687508e-02
-5.159756499641370703e-02
-4.599761328786947101e-02
-4.635515580989300888e-02
-5.696534623611088782e-02
-7.490283665908235855e-02
-8.708482115938127877e-02
-6.916358266923322562e-02
1.590367711559820957e-02
1.592085773055210429e-01
3.420962207288416601e-01
5.493385463340056951e-01
7.444801471029687256e-01
8.820922273968108129e-01
8.878152294538430578e-01
7.971758784167297662e-01
6.453085313358006836e-01
4.596882414941731443e-01
2.732019558037570572e-01
1.109473019466964278e-01
9.683830255236652168e-03
-4.760423293228378122e-02
-7.656285551132645251e-02
-8.826889055049623456e-02
-9.084598275467473116e-02
-8.823174327548122253e-02
-7.758208386955665892e-02
-6.564852177092243835e-02
-5.114715428685832205e-02
-3.842653429883934740e-02
-2.990355638753551884e-02
-2.137361336216986665e-02
-1.533950287688507115e-02
-8.100427658297958133e-03
-3.714727504442187807e-04
1.009941539446613384e-02
2.441504650345423244e-02
4.230610283265270194e-02
6.038057383224233049e-02
8.347457036825860210e-02
1.057536485586322156e-01
1.322559075772939963e-01
1.577551901705485926e-01
1.852000612927213186e-01
2.132369671104523967e-01
2.402732182074577838e-01
2.670030042855912056e-01
2.920913451489864920e-01
3.118095830679989411e-01
3.233809592352348550e-01
3.278850663308306435e-01
3.213959017266093121e-01
3.030706866206703820e-01
2.692666663568277774e-01
2.290640279716188443e-01
1.803546636079233489e-01
1.290078427181514942e-01
7.693200655620260897e-02
3.045147869342320138e-02
-8.699427467921155843e-03
-3.997278962134911962e-02
-6.303660399641927703e-02
-7.871507575752456631e-02
-8.892128956795530836e-02
-9.461410946403454869e-02
-9.697992654156761816e-02
-9.659684526797164550e-02
-9.504130312671164871e-02
-9.157035461747639604e-02
-8.843605328806999899e-02
-8.372299277051364896e-02
-8.103445874128981097e-02
-7.840628903396208715e-02
-7.690182439584800078e-02
-7.700165769744975186e-02
-7.627728583465508139e-02
-7.701790963026922121e-02
-7.700862281151729660e-02
-7.780032411027736072e-02
-7.674394847703422395e-02
-7.539503805304280382e-02
-7.433866241979962541e-02
-7.306636825052707784e-02
-7.034068694628793639e-02
-6.689527718862563199e-02
-6.350791004817812890e-02
-5.987676391543975130e-02
-5.498493213687624670e-02
-4.843308150606701751e-02
-4.255220353022356322e-02
-3.701261614357877899e-02
-3.162858297106377337e-02
-2.641403424080208256e-02
-2.268305480646390024e-02
-1.927711402850522740e-02
-1.703434729946388254e-02
-1.452226282655869408e-02
-1.304565864470604540e-02
-1.038266336705157174e-02
-7.122989984468859441e-03
-5.325990555606461944e-03
-1.386057699307722841e-03
3.700797273089178469e-03
1.182212027328745363e-02
2.146183813973598711e-02
3.218114868631048731e-02
4.712828347055710021e-02
6.510756457791663787e-02
8.670173988519729036e-02
1.085536244128924577e-01
1.302104857467612509e-01
1.503837777847066015e-01
1.647272693499560181e-01
1.691385082580101895e-01
1.620155182738453881e-01
1.439364038648786315e-01
1.170905325523259044e-01
8.368816719958513395e-02
4.781318635364803504e-02
1.507250683711567306e-02
-1.256042236482178033e-02
-3.174466820549106533e-02
-4.307458708512839490e-02
-4.514786937191673372e-02
-4.117311094528768728e-02
-3.338843512491477400e-02
-2.385551567413498469e-02
-1.824627714684029164e-02
-2.249499672670328063e-02
-3.570317469930073262e-02
-5.391926968488253841e-02
-5.992784141859471003e-02
-2.066781513689337768e-02
8.979889393958424837e-02
2.541593339490693659e-01
4.544783361732737670e-01
6.666241020804493100e-01
8.548029104887447938e-01
9.506986009405102855e-01
9.177791501629664062e-01
7.973825101339852006e-01
6.244131891397238787e-01
4.334460134005981846e-01
2.474774678557020435e-01
1.043466955174126160e-01
1.884992036521621409e-02
-2.517424393718236536e-02
-4.681020992885649018e-02
-5.606916822639576581e-02
-5.672388894854180075e-02
-5.042510412877357351e-02
-3.890016205530774651e-02
-2.448934105409312362e-02
-8.901415775838739802e-03
4.151207982632279005e-03
1.327550740824018881e-02
1.926550550444446411e-02
2.507905404432181004e-02
3.003357184947712255e-02
3.581693822840462810e-02
4.313030799702573248e-02
5.348278920282402427e-02
6.638682386123419266e-02
8.069316815146387878e-02
9.709601177536911210e-02
1.167144163927737732e-01
1.391397619785198492e-01
1.633226380134183975e-01
1.899316954477524577e-01
2.163643033257596215e-01
2.431753490679888219e-01
2.665177680056681764e-01
2.857391611213523364e-01
2.983669129218322058e-01
3.012852957152162836e-01
2.946196815546714420e-01
2.749107304544159414e-01
2.443779920965988284e-01
2.023783542825291215e-01
1.541565479034067987e-01
1.022130489087031691e-01
5.146058441916972342e-02
4.258006398282191025e-03
-3.553136855238750447e-02
-6.714602129501770489e-02
-9.114780436422331711e-02
-1.078849734632620211e-01
-1.183396096753583093e-01
-1.235750537478127603e-01
-1.259640878722316226e-01
-1.252025687344181237e-01
-1.219777209221634406e-01
-1.180285012471072453e-01
-1.142534094236898057e-01
-1.114905808444318497e-01
-1.089274188683856254e-01
-1.070143342051006058e-01
-1.068889621519274469e-01
-1.057907958342886173e-01
-1.045324318931515617e-01
-1.004949874399342635e-01
-9.749998839183615651e-02
-9.315607891974338195e-02
-8.856142534130281851e-02
-8.366495015335878582e-02
-7.895885474987261732e-02
-7.535789077808399683e-02
-7.202392284547211310e-02
-6.922626869588741072e-02
-6.688134696055547668e-02
-6.480109955970203561e-02
-6.461536318462916817e-02
-6.363328210141284969e-02
-6.124192627231193203e-02
-5.772686537399600998e-02
-5.181116182782707913e-02
-4.584205907381886519e-02
-3.469323315988227796e-02
-2.400178306956553265e-02
-1.032926415928313822e-02
6.038753894295321827e-03
2.668335198399487962e-02
5.275609563529686658e-02
7.809750230973201701e-02
1.050571371520221120e-01
1.301083307404009570e-01
1.464763487939793329e-01
1.521877423275646846e-01
1.436601210068872425e-01
1.257458476307992401e-01
9.988437910614958448e-02
6.640539749868873409e-02
3.525276398906014574e-02
4.817537228158069035e-03
-1.662804897905854895e-02
-3.250850904806378699e-02
-4.072502194048888829e-02
-4.196481224412463434e-02
-4.020263838558904568e-02
-3.261762916842405463e-02
-2.490492619338956562e-02
-2.102303595430328811e-02
-2.469132936205364892e-02
-3.610482961047993544e-02
-4.452565251548867842e-02
-3.520865160073953504e-02
1.955804029512332384e-02
1.440942797836105016e-01
2.964445414397405831e-01
4.928862968342313522e-01
6.773410909222560283e-01
8.342976146802673076e-01
8.868238615517751722e-01
8.251292028655742294e-01
7.109547314016404496e-01
5.383243792918925852e-01
3.633003496483567241e-01
1.922348264986248612e-01
7.539271634766103736e-02
5.223835548615468616e-03
-3.688260068112350631e-02
-5.814709392264560267e-02
-6.738980028736629713e-02
-7.068197753559223029e-02
-6.846939296749768311e-02
-6.181770903508970044e-02
-5.076871642275212343e-02
-3.816650337384525776e-02
-2.763292920234371522e-02
-1.890564127846088710e-02
-1.176872106616258865e-02
-5.052029402477976709e-03
-7.429455043873780650e-05
5.801940016026756533e-03
1.558792527784719738e-02
2.792546399227070417e-02
4.381056747065088797e-02
6.130461229812318030e-02
8.277341555222704483e-02
1.053102029630140629e-01
1.292516217103178433e-01
1.574626553796781014e-01
1.825161706727496669e-01
2.110127740187893730e-01
2.342785767017539211e-01
2.603884676280665000e-01
2.752543427482167515e-01
2.829949061795082321e-01
2.843647119456951811e-01
2.753216721841773573e-01
2.574724065393702022e-01
2.263011993922297571e-01
1.928918689254267016e-01
1.520809439118393502e-01
1.114069994748743547e-01
6.890819515278334695e-02
3.379009003528065519e-02
3.241099744644881670e-03
-1.915174197546005638e-02
-3.493701215223844747e-02
-4.409381544348650595e-02
-4.723508188696294574e-02
-4.781782976376292710e-02
-4.531503210961596029e-02
-4.058339795455250670e-02
-3.548029104934084799e-02
-2.977586262981658446e-02
-2.556429032496998141e-02
-2.086980344492172026e-02
-1.660947534161766326e-02
-1.328479422775525991e-02
-1.018067505929961050e-02
-8.803904179047259207e-03
-6.540242107810731627e-03
-4.339266063158415607e-03
-2.927669612583260091e-03
-2.017561374709480639e-03
9.286818305084223430e-06
2.263662070791761828e-03
6.143230605189909863e-03
6.591319610062012189e-03
1.113489568535703557e-02
1.393022813025269514e-02
2.011292771559384032e-02
2.500708119884884756e-02
3.143123807178885287e-02
4.375020314870890770e-02
5.637795494918894368e-02
7.666501051687146795e-02
9.676865141416242377e-02
1.223120463964971066e-01
1.462488217344200536e-01
1.669584275554006070e-01
1.794631290073927798e-01
1.782581642740881378e-01
1.664453308192486714e-01
1.423228191062482217e-01
1.104017013447381457e-01
7.112077972084364375e-02
3.332574909755357806e-02
3.552208168678298926e-04
-2.695963484275622213e-02
-4.511072209706178116e-02
-5.613417595782795727e-02
-5.789634981636071487e-02
-5.605755970311056269e-02
-5.068049164465769640e-02
-4.460923388436210252e-02
-4.342980790262792462e-02
-4.950106566292897942e-02
-6.379347972502960595e-02
-7.867560677800067293e-02
-7.300136051942611448e-02
-2.602166614863091545e-02
9.261280002181924986e-02
2.432867908928836864e-01
4.334506568098085433e-01
6.227624571060677017e-01
7.795959305155957253e-01
8.444132820077567825e-01
7.872691645109235470e-01
6.742276849349491119e-01
5.082443733482400194e-01
3.327606461763865098e-01
1.653053738171996190e-01
4.771103134717338823e-02
-1.821377328138018906e-02
-5.453219972281619227e-02
-7.013173352451450293e-02
-7.434098412467868289e-02
-7.302225586163745008e-02
-6.894069901934453404e-02
-5.883199680582932439e-02
-4.679395799621619001e-02
-3.454000065057263869e-02
-2.442897673237352102e-02
-1.618924679306103093e-02
-9.219489318335568825e-03
-5.360816126129375192e-03
-1.446422021404908820e-03
3.087867235140409963e-03
1.090272521646188861e-02
2.041939273442220856e-02
3.285444304576038560e-02
4.877901550384436402e-02
6.564620006543471498e-02
8.445665145126278472e-02
1.038103817341837348e-01
1.242669217441232377e-01
1.437669194224165115e-01
1.616788710938141527e-01
1.797672723215294754e-01
1.950951666746815749e-01
2.069892597936107137e-01
2.129955098226337107e-01
2.124568743349098954e-01
2.025431953152271036e-01
1.829085387649971306e-01
1.559280085805139215e-01
1.246174991520659081e-01
9.223900556693505337e-02
6.112584103700532262e-02
3.552904684683870495e-02
1.569008028402511454e-02
1.093522907737438802e-03
-9.484163652846704096e-03
-1.806054077198197133e-02
-2.430360467922882892e-02
-2.850821187001163076e-02
-3.184682321200680427e-02
-3.402922561914913102e-02
-3.601428312777758822e-02
-3.539670968064848738e-02
-3.409423335043091502e-02
-3.347433819861336118e-02
-3.050255619739978760e-02
-2.869859165447242663e-02
-2.403428693537836350e-02
-2.270859355827182374e-02
-1.949303256477092489e-02
-1.639123510099967790e-02
-1.432956133765873538e-02
-1.114186080041481425e-02
-1.070073690961239124e-02
-6.491486309450205348e-03
-4.413560613290106599e-03
-1.994344327923332910e-03
-2.925347912922299297e-04
1.776104086118502224e-03
5.425823856359662627e-03
9.126621129751164366e-03
1.392094131139847910e-02
2.139683040821066529e-02
3.372276059919172148e-02
5.099624348126544776e-02
7.303154267934693078e-02
9.672453902498655276e-02
1.220032596728335278e-01
1.443357370710410537e-01
1.570099229652898165e-01
1.586513681800255926e-01
1.460514768358010251e-01
1.234728987406200768e-01
9.209738158089550430e-02
5.451130437956984431e-02
1.853881193671308436e-02
-1.370037936711085771e-02
-3.801791427394559525e-02
-5.573948616088790498e-02
-6.609661077606915347e-02
-6.772180405798343406e-02
-6.558583574461199217e-02
-6.012750802206345141e-02
-5.376835888040035205e-02
-4.983074772878696990e-02
-5.300219633321357621e-02
-6.558583574461465671e-02
-7.816251004195465257e-02
-7.918173840018324916e-02
-4.272168797275808366e-02
6.151820912929824303e-02
2.037388732297136795e-01
3.883910122162566592e-01
5.754228985084569592e-01
7.422466671923877435e-01
8.282008181682025683e-01
7.923188722082000757e-01
6.931936905347980682e-01
5.346909114542770514e-01
3.632306985075078876e-01
1.948003101791719038e-01
6.800737373350380921e-02
-4.622514035294971249e-03
-4.645731081649019656e-02
-6.315965434520241784e-02
-6.843456739736600292e-02
-6.453874693014446939e-02
-5.724627250372496534e-02
-4.393826122952469021e-02
-2.974335876434154591e-02
-1.513287115992048397e-02
-1.808607952906301662e-03
5.119358837431733401e-03
1.002512084412402783e-02
1.282277499370842663e-02
1.674413421249765568e-02
2.177758997705998498e-02
2.889825825653414074e-02
4.019799497522466569e-02
5.524496306106917859e-02
7.132508973327952861e-02
9.066721149275761005e-02
1.106710190884494932e-01
1.313040086547060670e-01
1.538709782264475190e-01
1.739003245737069658e-01
1.957173835310788701e-01
2.132787577945153279e-01
2.300414656451302553e-01
2.433146513489984897e-01
2.502913739377941038e-01
2.534837178844099870e-01
2.456502862655792763e-01
2.317455968864449156e-01
2.051829735458831350e-01
1.727951931419935416e-01
1.344917091919370367e-01
9.255243569976163986e-02
5.316471566019874417e-02
1.497035183049414547e-02
-1.374217005157286550e-02
-3.900928217598451792e-02
-5.615739300487907620e-02
-6.925180744774422914e-02
-7.849219210777604039e-02
-8.327490376598804811e-02
-8.690604989872317832e-02
-8.696641422062670324e-02
-8.812494486016193840e-02
-8.475847306191233721e-02
-8.116215249950073374e-02
-7.656517721637232099e-02
-7.302457756648349230e-02
-6.939575313843895921e-02
-6.599909917923404978e-02
-6.460839807085591580e-02
-6.239117009338391445e-02
-6.121638752103167325e-02
-5.854178371993494501e-02
-5.660316030508245888e-02
-5.248445618776945154e-02
-4.918299212079646487e-02
-4.601850863043666084e-02
-4.394986975303094567e-02
-4.122883185816523383e-02
-3.895820467286429528e-02
-3.745141833005823095e-02
-3.553601196209022622e-02
-3.186771855433664230e-02
-2.522996485006011314e-02
-1.834611044880245234e-02
-8.188652436834812504e-03
3.837777849340933203e-03
2.164757451444175931e-02
4.225734703381937851e-02
6.668168035631596990e-02
9.184431576974523559e-02
1.166981644596052081e-01
1.378697895135878870e-01
1.503234134624331364e-01
1.508597272454668958e-01
1.394717657486129470e-01
1.190036172152340449e-01
8.993587451582879533e-02
5.634080767395019396e-02
2.216763636464208140e-02
-7.013869864491940539e-03
-3.079276928360671212e-02
-4.809411262193899472e-02
-5.784062890405834712e-02
-5.902237659047810531e-02
-5.508476543886957344e-02
-4.732330666537760966e-02
-3.768591050362286171e-02
-3.235295483425023461e-02
-3.430783018192931633e-02
-4.424240454380785198e-02
-5.285128552858636697e-02
-3.669222089696860117e-02
2.609363899279736401e-02
1.639146727086035482e-01
3.349151881270520659e-01
5.416188782444993910e-01
7.406609428900541303e-01
8.938029058449462605e-01
9.443742773687739955e-01
8.664857284806348758e-01
7.310723025267498176e-01
5.454450475710604929e-01
3.566974215140879534e-01
1.828621046710391662e-01
5.964227174089642425e-02
-8.351171765066381023e-03
-4.735116712166347747e-02
-6.622198282938843161e-02
-7.562256511292879402e-02
-7.766334353407534918e-02
-7.263220947420676032e-02
-6.169930209629138906e-02
-4.802910489069809469e-02
-3.359274513791075945e-02
-2.147809007357938740e-02
-1.108613988807297980e-02
-3.241099745802285704e-03
2.744254941024886710e-03
8.232764824518217645e-03
1.622407236216669851e-02
2.713144098850372651e-02
4.050910340335760196e-02
5.700713691948366968e-02
7.629121606175588710e-02
9.911357314922132622e-02
1.209956398378697756e-01
1.449834926789374534e-01
1.678360319273582701e-01
1.903635325193904493e-01
2.111660065279094556e-01
2.295469425463688151e-01
2.458290575264745759e-01
2.572263058420745652e-01
2.635877766884307527e-01
2.635343774805923855e-01
2.531888613888582107e-01
2.336702900730500687e-01
2.047186326080727148e-01
1.691849423513324402e-01
1.280211182251048407e-01
8.411536086181167771e-02
4.431437738770461349e-02
7.482854210120420783e-03
-2.154541950957584301e-02
-4.436081148298375715e-02
-5.975139186272118014e-02
-6.825811784120801307e-02
-7.402058887794077391e-02
-7.425508105147808624e-02
-7.561792170359699083e-02
-7.453368561409436099e-02
-7.320799223698749858e-02
-7.235824832101840631e-02
-6.902892379777864074e-02
-6.724585459705240131e-02
-6.175734471355357608e-02
-5.815870244645891807e-02
-5.357101398207893272e-02
-4.921781769123782097e-02
-4.575151259137946735e-02
-4.149582789745328432e-02
-3.842189088994306390e-02
-3.419174494758985688e-02
-2.933009532997266425e-02
-2.529265087676084781e-02
-2.100446231719095211e-02
-1.813019191289289012e-02
-1.417400712377143122e-02
-1.152262036956462621e-02
-9.693117075063921451e-03
-7.870578894633979347e-03
-6.588997906607616320e-03
-4.850041094961895366e-03
-4.657339605818864615e-03
-3.496487261597342692e-03
-1.852720342172684475e-03
2.238123318873494298e-03
6.393974711201702750e-03
1.167353117273459487e-02
1.422508462534344091e-02
2.054708649199065221e-02
2.294772913985021132e-02
2.816459957479494972e-02
3.050023449137786308e-02
3.874228613537372690e-02
5.206190593301643355e-02
6.414173542702113207e-02
8.051671859466483228e-02
9.702636063423325519e-02
1.207541825502000121e-01
1.416379162228093846e-01
1.625262933048010894e-01
1.818893104064753796e-01
2.002168472171060309e-01
2.122595294360956064e-01
2.124011534220926201e-01
2.029030595416375649e-01
1.831058836632208087e-01
1.563064464444318125e-01
1.204662911688213905e-01
8.100891998859975629e-02
4.599993499145465375e-02
1.465227828799097257e-02
-8.882842138831238341e-03
-2.676228994459298183e-02
-3.233205949218442843e-02
-3.150088921372275197e-02
-2.604488319586229644e-02
-1.878026922570399937e-02
-1.418793735194716875e-02
-1.568543687600144551e-02
-2.943689374569281869e-02
-4.654321389020051741e-02
-5.570001718144811792e-02
-2.881235518450534980e-02
6.991349328248118444e-02
2.163294777549262804e-01
4.040648405677320087e-01
6.018903319565387378e-01
7.802761899889540942e-01
8.848875598411571897e-01
8.529571552608976592e-01
7.395186641831968943e-01
5.661709053247229173e-01
3.739082183694356076e-01
1.874939055243618480e-01
3.483485714466476313e-02
-5.195975092837054610e-02
-1.006644718826919527e-01
-1.209375972222405948e-01
-1.297949006086843715e-01
-1.310462994357572686e-01
-1.257899600211098701e-01
-1.164288467172751307e-01
-1.023221690302540676e-01
-8.734253038036884909e-02
-7.135062848632592325e-02
-5.928472922044617649e-02
-4.792462817986220536e-02
-3.705440682853450990e-02
-2.870323506418252443e-02
-1.932354812284011944e-02
-9.453981492241435303e-03
3.563816695903064807e-03
1.698094809045426132e-02
3.183985809654010790e-02
4.891831778477791909e-02
6.615465339183716764e-02
8.482812420104056395e-02
1.036803662712613844e-01
1.233498483918100685e-01
1.428893150498123099e-01
1.630974326580814926e-01
1.815758802734618038e-01
1.979787238973605423e-01
2.104602083024729176e-01
2.178037602320374022e-01
2.171258224630117362e-01
2.060396825756553585e-01
1.864932508035915537e-01
1.566663106710620146e-01
1.206798880000794494e-01
7.879865712511434361e-02
3.719370910808130620e-02
-2.405286058136873323e-03
-3.783682130857974474e-02
-6.637753704370769059e-02
-8.926490186245197855e-02
-1.040123700434948811e-01
-1.154606958622430707e-01
-1.205916632237234720e-01
-1.225836858464124240e-01
-1.217966279570322913e-01
-1.182560283071435320e-01
-1.134152740317286440e-01
-1.058558035661319313e-01
-1.012820453298888951e-01
-9.439586922394287150e-02
-8.988944042366489584e-02
-8.475847306218753374e-02
-8.299165579428127715e-02
-7.877079667067657387e-02
-7.523948383954782992e-02
-7.183354306158928893e-02
-6.868995491343179993e-02
-6.570888609345976183e-02
-6.212881746387355353e-02
-6.293444899076440502e-02
-6.003696153958267695e-02
-6.031788780688372709e-02
-5.780580333398476628e-02
-5.782205526680245927e-02
-5.590664889883530109e-02
-5.311131645393930845e-02
-5.157899135956649922e-02
-4.828913581603053173e-02
-4.493427254122400738e-02
-3.968721994532417585e-02
-3.409655505553972621e-02
-2.598219716940339263e-02
-1.804196713490693882e-02
-8.720322810776297631e-03
-2.971782010821147108e-04
8.787652244826563500e-03
1.664197920585034837e-02
2.202833408305721052e-02
2.780241364322925610e-02
3.172145115733533693e-02
3.545707400104774337e-02
3.734461991275954407e-02
3.931806889793795085e-02
4.037908794056135203e-02
4.053464215468293580e-02
3.953863084333911204e-02
3.838938702255144386e-02
3.717977887987018726e-02
3.620930632009321248e-02
3.617912415914487090e-02
3.699404250478638412e-02
3.870281715548754692e-02
4.095022729390310895e-02
4.284706002436877020e-02
4.485301287518548424e-02
4.644802399615256816e-02
4.877669379866390181e-02
5.123770076842305149e-02
5.434181993687688811e-02
5.963995003592267863e-02
7.011548159020716819e-02
8.341884945503066917e-02
1.017928203594240660e-01
1.199880200028129590e-01
1.398873508875184135e-01
1.552152452406708460e-01
1.617670958714737262e-01
1.573001360508963220e-01
1.385407621682107071e-01
1.128162742201796187e-01
7.689485928046715935e-02
3.902089069777401470e-02
1.393022711069465461e-05
-3.095528861213035429e-02
-5.531925761273572689e-02
-7.166870202880333551e-02
-7.907493998496552268e-02
-8.067923792468337241e-02
-7.382324397969351748e-02
-7.057982252992649197e-02
-6.698582367220973222e-02
-7.489819325044784482e-02
-8.871697955611058950e-02
-1.074949270762975279e-01
-1.120826155406806912e-01
-6.829294341181232908e-02
4.681485333687527423e-02
2.072492907181903155e-01
4.069507194952641238e-01
6.116507784665781156e-01
7.890197298454456609e-01
8.717629632371381998e-01
8.259998421230835275e-01
7.094595535816189402e-01
5.367990193109195562e-01
3.533425582389319031e-01
1.745387933625921484e-01
4.253595159604672132e-02
-3.326306307249362465e-02
-7.347730998114453127e-02
-9.134282755877697058e-02
-9.694045756262942293e-02
-9.378758259571855216e-02
-8.529943025474116813e-02
-7.197052363835129696e-02
-5.813780710456063761e-02
-4.450475717398377079e-02
-3.442855882610613982e-02
-2.909328145205173147e-02
-2.798582831565878462e-02
-2.582432125071632348e-02
-2.463560845022760154e-02
-1.932819153243457364e-02
-1.248844952025708610e-02
8.961780086555891280e-04
1.947445892563931871e-02
3.808524370825430716e-02
6.061738770966942913e-02
8.198403595747524863e-02
1.065592800847269123e-01
1.296927456004436929e-01
1.530839203365855217e-01
1.766004671258966929e-01
1.998476961713545608e-01
2.221453479992291369e-01
2.419634192198454881e-01
2.573609647136448353e-01
2.669519267816363173e-01
2.684006705072244925e-01
2.607878008337970455e-01
2.429780041686874503e-01
2.138127498723731146e-01
1.769046104400689157e-01
1.348329997806576586e-01
9.129871516751550398e-02
4.905297665647043864e-02
1.128348478475112160e-02
-1.771228506930634661e-02
-4.051374681458462523e-02
-5.525192817686693653e-02
-6.405583235547654408e-02
-6.697885855823373924e-02
-6.615697509852716540e-02
-6.352184027713367320e-02
-5.843730700943178258e-02
-5.392391309508177272e-02
-4.949874395889985318e-02
-4.679627970154130734e-02
-4.469745866318689670e-02
-4.295385844215845322e-02
-4.100130479917644954e-02
-3.909286354526799595e-02
-3.666668214584205970e-02
-3.374597764776916115e-02
-3.130122261083562868e-02
-2.987801763681337611e-02
-3.108762577950108588e-02
-3.237385017690067729e-02
-3.416852790107796634e-02
-3.777645698692814330e-02
-3.981027029401584122e-02
-4.219233930436412650e-02
-4.258470739671723487e-02
-4.460226877097878129e-02
-4.693093857349969755e-02
-4.795481034110437440e-02
-4.996076319193066412e-02
-5.171597193639728557e-02
-5.357797909653964907e-02
-5.295111883065593827e-02
-4.988879034659456091e-02
-4.663840378276166987e-02
-4.368287371436901240e-02
-3.949451845640207515e-02
-3.422657051831261288e-02
-3.090653281382620826e-02
-3.005214548848133410e-02
-2.783491751100895459e-02
-2.478884095976672045e-02
-2.123663278643524513e-02
-1.773782382094514498e-02
-1.341480969104806402e-02
-8.471900409341686505e-03
-4.550541190546558527e-03
-1.530003390877280895e-03
8.961780085556565875e-04
1.218894960245334299e-03
4.144242867695152946e-03
6.842063715669802725e-03
1.056839974063508020e-02
1.490998750803275603e-02
2.017561374144078573e-02
2.712911928334538550e-02
3.279407872316693340e-02
3.998904155267039850e-02
5.066656141485677278e-02
6.504487855042641320e-02
8.284306669209075269e-02
1.035619593318190257e-01
1.263309172114560619e-01
1.469383680261386882e-01
1.607107202380296807e-01
1.658254356666814811e-01
1.590878486607998354e-01
1.419908153350446789e-01
1.152285253912765789e-01
8.490241875072992994e-02
5.310435133771246319e-02
2.333313211770547332e-02
9.844027866819815998e-04
-1.573651437954417392e-02
-2.303363221534241931e-02
-2.462864333631290328e-02
-2.134110949746485797e-02
-1.419954587579572505e-02
-9.372721828504933586e-03
-8.304737671822572803e-03
-1.722704878953624716e-02
-3.350916376964522408e-02
-4.276812206718422216e-02
-2.861733199108270828e-02
4.296546696322824793e-02
1.671557724531344824e-01
3.225428238417583637e-01
5.100878068701046875e-01
6.802803690569780848e-01
8.053343486909877447e-01
8.156311089842679385e-01
7.400781950127037767e-01
6.141048203220642598e-01
4.438797542695500087e-01
2.735432463919962864e-01
1.212440622390091455e-01
2.466346890415412399e-02
-3.566138401586244761e-02
-6.818382329167693712e-02
-8.131770671424649877e-02
-8.151505161276322020e-02
-7.754493659551722762e-02
-6.582264962352857296e-02
-5.214548730387059267e-02
-3.792968949648599375e-02
-2.672746437471635803e-02
-1.667216136903525159e-02
-9.864923222502586936e-03
-4.543576076572251703e-03
1.047088813212294000e-03
8.026133106696363081e-03
1.792123848886831641e-02
2.665781323150949109e-02
4.041855691995168559e-02
5.356172716127208938e-02
7.038247762909219385e-02
8.590539517607444220e-02
1.041864978929299829e-01
1.246291076747390592e-01
1.454060429316790526e-01
1.668400206154564969e-01
1.869529483314995300e-01
2.072446473085592655e-01
2.263151296194879925e-01
2.422931012854064037e-01
2.528893614834903936e-01
2.570591431039491725e-01
2.550230080921734865e-01
2.435653954546711797e-01
2.220687317443025000e-01
1.907094665174016712e-01
1.555704660576972820e-01
1.183651484252778580e-01
7.879633542000975821e-02
4.354821483995416354e-02
1.289242613364794190e-02
-9.115012608173860692e-03
-2.853375062237916218e-02
-4.166066893087740086e-02
-4.967055010603645127e-02
-5.382640149836156324e-02
-5.575109468509158173e-02
-5.538426534431495352e-02
-5.193885558665874147e-02
-4.772496157711947351e-02
-4.229449431083800309e-02
-3.725639513689876087e-02
-3.188397048782855986e-02
-2.885878927877598768e-02
-2.594040648539806815e-02
-2.366513589071502985e-02
-2.266680287468574376e-02
-2.142004745698632487e-02
-2.093481117710462025e-02
-2.162667917426144837e-02
-2.057030354102089981e-02
-2.200511703848192710e-02
-1.932586982801439909e-02
-2.031027261591600991e-02
-1.662572727534938205e-02
-1.114882591529296578e-02
-7.283187609027192387e-03
-7.452672063488466250e-04
6.361470832747815945e-04
6.061970940185288856e-03
5.423502150856897470e-03
8.432431427090334233e-03
9.556136496295948579e-03
9.284497047748682674e-03
1.007155493712896983e-02
1.216573256611287561e-02
1.598725848329810711e-02
1.763566881209949894e-02
2.087676855717208318e-02
2.700606893468314104e-02
3.690349602154360115e-02
4.748582599150292377e-02
6.335467753705834038e-02
8.174025696490011539e-02
1.035898197879042831e-01
1.247591231371982939e-01
1.424621213866297254e-01
1.524733120032300548e-01
1.524013391578836474e-01
1.418027572551080195e-01
1.218360969344282896e-01
9.237598614267997221e-02
5.797296606921442663e-02
2.483527505096037521e-02
-3.210917585527419717e-03
-2.700606893745625611e-02
-4.339730403792202429e-02
-5.013489104380428746e-02
-4.928282542314742914e-02
-4.579330327640477455e-02
-4.078770796810979316e-02
-3.595159710206579512e-02
-3.920662707527807628e-02
-5.155345260845697192e-02
-6.809095510429517828e-02
-7.386967807384729745e-02
-5.323901021227981506e-02
3.170519922406379171e-02
1.572513802520255077e-01
3.258907220023248286e-01
5.069302884936327525e-01
6.763056106301708059e-01
7.838887624835902956e-01
7.761226603007242986e-01
7.000264674320628711e-01
5.633662860604842226e-01
4.008028454798575058e-01
2.333823986909966119e-01
9.769036817449723575e-02
1.403238313555716689e-02
-3.611179472560289289e-02
-6.229365849725985310e-02
-7.114631847432591194e-02
-7.050320627562459141e-02
-6.401171996672060105e-02
-5.356869227806929784e-02
-4.185569212483989526e-02
-2.669263880456851715e-02
-1.345195696633861258e-02
-3.457018282558275025e-03
1.922371480577883887e-03
6.602928132494778266e-03
1.280187965065401369e-02
1.731527356500246403e-02
2.301505857514481515e-02
3.207667197416798344e-02
4.415417976348414569e-02
5.826550085988739525e-02
7.339837201920455800e-02
9.217399783470502095e-02
1.120942240616073365e-01
1.318217487993725012e-01
1.515237347855604710e-01
1.703620466276490886e-01
1.861914291935015120e-01
1.997339326412342908e-01
2.114213940428908978e-01
2.204621120997179440e-01
2.240166419777320783e-01
2.193987713524042371e-01
2.087491119464776057e-01
1.879930720317296577e-01
1.590924920698928435e-01
1.220427286515985005e-01
8.308220227470526631e-02
4.456047808393322207e-02
9.688473663401503400e-03
-2.120645062581031151e-02
-4.562614053893742500e-02
-6.478252592334297899e-02
-7.817644027101817994e-02
-8.706856922778362373e-02
-9.378758259616332138e-02
-9.551493088437019996e-02
-9.559619054846962838e-02
-9.288676117704744439e-02
-8.988711871957288935e-02
-8.572198050849218209e-02
-8.100659828625264569e-02
-7.630050288276293835e-02
-7.191944613566031430e-02
-6.630788590367484026e-02
-5.979318254788611869e-02
-5.217566946507934400e-02
-4.460459047604560523e-02
-3.731908116368725520e-02
-2.919775816349071823e-02
-2.215834954810812912e-02
-1.728973481643089963e-02
-1.528842537498610772e-02
-1.430402258708672950e-02
-1.548809197819616713e-02
-1.770764166035861120e-02
-1.975770690026012327e-02
-2.145951643689808855e-02
-2.150130712128981922e-02
-2.025687340828397076e-02
-1.755905256030399625e-02
-1.405560018543571509e-02
-1.096541124510758830e-02
-7.157815556052276804e-03
-3.329324524796859006e-03
-1.348910425552172533e-03
1.711096353826094566e-03
2.760506873002092736e-03
5.581378069469945975e-03
7.378377498327040422e-03
1.050107030429348054e-02
1.406953041043838663e-02
1.859917625760588999e-02
2.480277118514223958e-02
3.050023449060040512e-02
3.745606173719474158e-02
4.416114487744044609e-02
5.436039357380027109e-02
6.677919195232290273e-02
8.209779948671631911e-02
1.009639717850662616e-01
1.200437409147497164e-01
1.392442386882365435e-01
1.539708115270750910e-01
1.615117083551630417e-01
1.577064343707889060e-01
1.420581447706321943e-01
1.193309775753856883e-01
9.013554111811962477e-02
5.685158270448821549e-02
2.353744212991076140e-02
-3.333967934220080382e-03
-2.230926035292660897e-02
-3.521561671602707611e-02
-4.232235476737412905e-02
-4.468817184490885691e-02
-4.205535872820565652e-02
-3.831509247511531713e-02
-3.992403382421136349e-02
-4.706095403651210790e-02
-5.969334924637163114e-02
-6.838581159993425973e-02
-6.189432529102614072e-02
-1.453387135132589575e-02
9.779716658997983370e-02
2.377611337332208308e-01
4.161725305172075395e-01
5.896851304085597434e-01
7.365492038858794110e-01
7.950166930551273436e-01
7.438695387685607674e-01
6.438342488572861289e-01
4.873722481979119170e-01
3.219531108504914418e-01
1.633713938105618158e-01
5.099392177548364713e-02
-1.427616213092782090e-02
-5.253553369190895606e-02
-6.690688571341786572e-02
-6.942825700507890274e-02
-6.853672240471352095e-02
-6.507506071423736771e-02
-5.802868698478945431e-02
-4.974020124702448892e-02
-4.310941265680923173e-02
-3.642754656345206787e-02
-2.973871535602553087e-02
-2.132021415570732603e-02
-1.260221305057496188e-02
-4.253362990910276691e-03
6.500773125993264054e-03
2.000612929870672699e-02
3.606536062871990023e-02
5.218495628062874703e-02
6.994135373789935051e-02
9.023537441964239736e-02
1.140839249794074056e-01
1.357152475616980325e-01
1.570911826282631596e-01
1.763822268845956776e-01
1.954898564705444819e-01
2.124266921727880897e-01
2.240909365275643161e-01
2.337515497362037398e-01
2.391657650696709936e-01
2.401826717232088126e-01
2.331014724234348190e-01
2.177016052249384492e-01
1.939807484230389734e-01
1.642118509077218347e-01
1.292098310246409809e-01
9.265226900029420454e-02
5.559089705855765895e-02
2.204922942450822376e-02
-5.704428421229831500e-03
-2.964352546384757536e-02
-4.851201946688516592e-02
-6.184092608328366214e-02
-6.960702826615049188e-02
-7.430848026026654063e-02
-7.680431280035046604e-02
-7.688092905507290520e-02
-7.523251872627245707e-02
-7.520697997470307539e-02
-7.467763130573583374e-02
-7.431080196496417378e-02
-7.236057002666512750e-02
-7.080502788540676828e-02
-6.626841692417374807e-02
-5.994641505752625749e-02
-5.335277374232601233e-02
-4.713524858665879558e-02
-4.128455277176275307e-02
-3.398046982190066484e-02
-3.141962955053911183e-02
-2.904452565425767047e-02
-2.767704159275971229e-02
-2.478187584626534781e-02
-2.329598484565640129e-02
-2.347939951604752912e-02
-2.189135350914675135e-02
-2.101607084160440897e-02
-1.899618776265181094e-02
-1.774246723089201519e-02
-1.734313402447794361e-02
-1.564364619253563390e-02
-1.462209612961680276e-02
-1.199624812698270315e-02
-1.166656606122214689e-02
-9.558458204112529541e-03
-7.215858173465298890e-03
-3.039111438946194652e-03
-1.160852520603567117e-05
4.244076168720389494e-03
8.121322998433466375e-03
1.190570164060442138e-02
1.494481307778682683e-02
1.485891000431062078e-02
1.832289339947949444e-02
1.754280062415655705e-02
2.106947004591360265e-02
2.252517888556859749e-02
2.898880473821565523e-02
3.576353901911098754e-02
4.394290463652302664e-02
5.822835358455603905e-02
7.409488342542799866e-02
9.309107118632729827e-02
1.119108093909084306e-01
1.336094614091642430e-01
1.492902548749601710e-01
1.571399384266081722e-01
1.524918856403306433e-01
1.393858626740234197e-01
1.149243820765084440e-01
8.296843874467073332e-02
4.453261762737157486e-02
1.277634089874060512e-02
-1.563900278320574239e-02
-3.493701215361078721e-02
-4.871168607018763752e-02
-5.264233210773815869e-02
-4.523609415158016955e-02
-4.155619222038962890e-02
-3.280104384024183639e-02
-3.175627673044272709e-02
-3.282426088712944029e-02
-4.685432231944011011e-02
-6.292516217289459424e-02
-6.221472053823239728e-02
-2.144558620903925725e-02
8.321686114631020315e-02
2.231831499942438235e-01
4.044432784309555107e-01
5.885265997688274853e-01
7.478373320809271751e-01
8.199889486839073705e-01
7.832897626735650931e-01
6.831569611653801610e-01
5.290282737178950700e-01
3.576771808914881445e-01
1.905492688933679013e-01
6.836491625427952579e-02
-6.570424270155730308e-03
-5.018132513801035893e-02
-7.219572899390259979e-02
-7.747064204606085580e-02
-7.419936014003759850e-02
-6.630788590399247506e-02
-5.342474658778374741e-02
-3.714030990298968632e-02
-1.941641631136144935e-02
-3.645076362714971905e-03
8.137574931168189279e-03
1.738028129589157603e-02
2.618650717918107745e-02
3.402922561676874347e-02
4.212733157008081292e-02
5.157666965207627352e-02
6.357523948198536001e-02
7.944641273223518319e-02
9.555672156539028739e-02
1.142580528308614202e-01
1.331451204714034497e-01
1.539011603861532851e-01
1.749056227025622967e-01
1.943707948105335703e-01
2.140425986357719079e-01
2.326092710293127808e-01
2.505839087272936361e-01
2.645141368579986829e-01
2.742188624557183596e-01
2.758742378985850063e-01
2.689625230410638834e-01
2.518213773262343302e-01
2.244484790493981863e-01
1.878839519109908873e-01
1.456149963530556923e-01
1.026077387041980093e-01
6.019715916026733421e-02
2.099981890515709160e-02
-1.287849590871761526e-02
-3.946897970554108515e-02
-6.086581011430535620e-02
-7.714560338971972187e-02
-8.929276231969678068e-02
-9.642271741792732276e-02
-1.004462316430157348e-01
-1.021921535687293631e-01
-1.012541848745988071e-01
-9.929466611754526884e-02
-9.526186507371005308e-02
-9.188842816139008995e-02
-8.749111948146810758e-02
-8.349778741733186738e-02
-7.959268013136137909e-02
-7.431776707920037528e-02
-6.999243124462031784e-02
-6.474305694403226230e-02
-6.119549218008318164e-02
-5.582538923569566741e-02
-5.221513844515840441e-02
-4.889974415004967601e-02
-4.678234947418616341e-02
-4.462548581861428693e-02
-4.157244415330520193e-02
-4.095951411555295851e-02
-3.829419713321511459e-02
-3.808292200656482329e-02
-3.577514754624838006e-02
-3.560798480867864713e-02
-3.438444643786864319e-02
-3.336521807963752084e-02
-3.239242381518019076e-02
-2.981765331568717384e-02
-2.726842156777188955e-02
-2.306613608167500801e-02
-2.041474932746789941e-02
-1.497731694711529685e-02
-1.093058567514937872e-02
-5.532622274500428525e-03
-1.982735805862939106e-03
2.344921733410282403e-03
5.372424647146388337e-03
7.842718435659125353e-03
8.822477814181804018e-03
8.757470082906481865e-03
8.125966407644439130e-03
8.172400501414744597e-03
8.578698821890121118e-03
8.457970178091982552e-03
1.198463959984496369e-02
1.428544894610080281e-02
1.903797844335570338e-02
1.984360997024935472e-02
2.320079494974544576e-02
2.369067463900981912e-02
2.211655886023683112e-02
2.176830315697054694e-02
1.972288132644208977e-02
2.137593506462021758e-02
2.067942365808155339e-02
2.308470971531768196e-02
2.590093750240477291e-02
2.841998708937498730e-02
3.152178455314150890e-02
3.396189618070441507e-02
3.871906908733621644e-02
4.355517995338015202e-02
4.927121689634205576e-02
5.770132662010750424e-02
7.107666733026792028e-02
8.699659637897499964e-02
1.050803541973132221e-01
1.229389066608765763e-01
1.415125441684778607e-01
1.533207342139389362e-01
1.555402838960941447e-01
1.453480003137972987e-01
1.252815066915152209e-01
9.675472118452396741e-02
5.989998096005557521e-02
2.370460486711198356e-02
-9.837062766937413466e-03
-3.453303553798516695e-02
-5.233354538433947212e-02
-6.171787573505548713e-02
-6.162268584283255024e-02
-5.851624496968434869e-02
-5.196207263419180128e-02
-4.684503550084538614e-02
-4.780157783249054659e-02
-5.444165324145798512e-02
-6.755928473120736966e-02
-7.189158567985494408e-02
-4.836575207178848979e-02
3.812703439175148951e-02
1.867068476338327176e-01
3.633885744249247818e-01
5.620150539312471771e-01
7.373269749561534026e-01
8.618701795587051517e-01
8.581392001243661749e-01
7.535881945940542392e-01
5.982127517288761132e-01
4.157662321963581653e-01
2.432844691866758169e-01
8.964566142845283025e-02
-1.014584950853366111e-03
-4.873025970789451183e-02
-6.853440070037677967e-02
-7.731973124147820120e-02
-7.764476989785994154e-02
-7.212607785341718092e-02
-6.003696154065355645e-02
-4.246862216315214211e-02
-2.513245325449019879e-02
-8.077210613136367665e-03
3.526669419741031500e-03
1.349142594256671525e-02
2.117626846133949942e-02
2.675300312299354680e-02
3.383420242276918150e-02
4.187426575886931540e-02
5.421644788267402509e-02
6.800273032268940032e-02
8.418269029650297941e-02
1.000422550233047020e-01
1.181074392041401161e-01
1.353182360596201506e-01
1.536434511655619395e-01
1.707613798335039790e-01
1.882229207953421135e-01
2.064297289621675469e-01
2.227513129219764187e-01
2.380490251141732794e-01
2.490422968139879012e-01
2.574236507392904660e-01
2.585218170569286156e-01
2.526525476045212160e-01
2.365143783151021362e-01
2.124359789911766661e-01
1.798880009637887356e-01
1.414452147324194164e-01
9.845653072106912151e-02
5.574877297701601869e-02
1.643534748748306379e-02
-1.756833937956875022e-02
-4.538932666127122595e-02
-6.712048254517315182e-02
-7.996183117699227905e-02
-8.945528164807108051e-02
-9.294248209012273554e-02
-9.505523335661704432e-02
-9.398492749524019196e-02
-9.108744004405811001e-02
-8.837336726325822900e-02
-8.398998881146774176e-02
-8.095319907897320644e-02
-7.571543330183291842e-02
-7.066572560445168183e-02
-6.606410691194684881e-02
-6.196397643214193729e-02
-5.763399718818581347e-02
-5.310667304570597380e-02
-4.984467795843713911e-02
-4.708184937917975904e-02
-4.534753597691140725e-02
-4.236414545225122147e-02
-4.066233591562117000e-02
-3.858208851476827711e-02
-3.763018959250776646e-02
-3.631610473884357149e-02
-3.443320223651437362e-02
-3.368793503152057306e-02
-3.302160578593949652e-02
-3.327467159697946458e-02
-3.315626465787273325e-02
-3.272674929050822107e-02
-3.190254412611251422e-02
-3.124550169927982693e-02
-2.927205271410107321e-02
-2.623990639098340572e-02
-2.258089980198950755e-02
-1.942570313038395960e-02
-1.666519625582044140e-02
-1.306655398872082034e-02
-9.447016379430579758e-03
-7.754493661548906257e-03
-5.732288877912676897e-03
-4.076913435046213181e-03
-2.284557415566593717e-03
-2.077925698293307723e-03
-2.296165939011910080e-03
-1.184069393242888606e-03
-7.127633414916632274e-04
2.925347886086306017e-04
5.966781027914125433e-04
1.971127278355353125e-03
1.202643026473957776e-03
9.681508529416310398e-04
1.207286416529149240e-04
-1.023871769752048326e-03
-1.669305673145561912e-03
-2.240445026503226460e-03
-9.402904009751358915e-04
-9.495772197277546059e-04
-7.220501602638422500e-04
-7.150850461973060328e-04
-1.005298132257878433e-03
-6.756160664967087240e-04
-8.938563072153123817e-04
7.266935653243923772e-04
2.310096162843456365e-03
4.083878544820900187e-03
6.015536845607552877e-03
7.002261338200247397e-03
8.167757091798198699e-03
7.673233993159412139e-03
7.891474233869518254e-03
8.425466312214351106e-03
8.861946793638809938e-03
1.022014403638361012e-02
1.130438012588578373e-02
1.314781364851675197e-02
1.465924340069384331e-02
1.692290547193436509e-02
1.965787359492492808e-02
2.160810553322461275e-02
2.419912796553123219e-02
2.670424732437061757e-02
2.913739383786257894e-02
3.137783886221857943e-02
3.429622165559673141e-02
3.981955710942188670e-02
4.667787275910072198e-02
5.772686537143831287e-02
7.134134166450838144e-02
8.983371950801860573e-02
1.077479928840992252e-01
1.252164989600026979e-01
1.388959829843494365e-01
1.459400350091096532e-01
1.443844928678436335e-01
1.308652064669968973e-01
1.096262519770466598e-01
7.914691282706828868e-02
4.763673679541260281e-02
1.567382834951427939e-02
-1.151797696162329236e-02
-3.166108683861958845e-02
-4.326264516681136568e-02
-4.580026839128673727e-02
-4.537307472861595858e-02
-4.160262631457103261e-02
-3.606303892793203542e-02
-3.761858106919280936e-02
-4.578633816316616395e-02
-6.229133679336037316e-02
-7.545772408156788125e-02
-6.455267715991426514e-02
-6.282532889185213701e-03
1.354598600454136603e-01
3.147163573359920696e-01
5.225042835429450916e-01
7.282746483756297184e-01
8.850222187116845163e-01
9.483676094313665539e-01
8.616217571567873490e-01
7.158790670439854065e-01
5.299105214990925683e-01
3.367307611918680665e-01
1.652380443794645437e-01
3.478145793542147812e-02
-2.375568237448334036e-02
-5.723234227725632756e-02
-7.017352421067978019e-02
-7.489587154699206550e-02
-7.297582176964319267e-02
-6.487075070226595852e-02
-5.315078543496706831e-02
-3.883979773536137825e-02
-2.577092204407271242e-02
-1.430402258781902046e-02
-7.485175917839383651e-03
-1.086557796473356166e-03
4.803606998126032541e-03
1.243272860437088199e-02
2.198422169265686066e-02
3.418942323983786141e-02
5.012792592605144759e-02
6.835098602569639192e-02
8.775579381176673577e-02
1.085838065718532502e-01
1.292005442052947539e-01
1.513240681815367084e-01
1.743228748253285998e-01
1.978022743396256056e-01
2.210866506600969172e-01
2.423302485594160671e-01
2.618464981705321271e-01
2.761319471185646468e-01
2.852910721145026640e-01
2.862661880836479544e-01
2.785372331757962061e-01
2.628100056162280262e-01
2.378586453294497249e-01
2.052131557051419530e-01
1.640261145320286440e-01
1.197047720295028456e-01
7.428294150465561407e-02
3.087635064937932841e-02
-9.224132729539112618e-03
-4.298171889961468345e-02
-6.780538542852815320e-02
-8.554553095298300658e-02
-9.563565952898897549e-02
-1.012681151031739335e-01
-1.017092389939792535e-01
-1.003487200465509738e-01
-9.791093012367758919e-02
-9.536402008045104239e-02
-9.389438101266159298e-02
-9.243170705894147854e-02
-9.104332765524784932e-02
-8.816441384157286398e-02
-8.615613928606292993e-02
-8.300094261446230859e-02
-8.004773425075298321e-02
-7.721061112147011019e-02
-7.459637164227453376e-02
-7.203785307560577056e-02
-6.827436977562713338e-02
-6.473377012574380029e-02
-6.097028682576513536e-02
-5.635705960981760715e-02
-5.208047957369136421e-02
-4.982146091183271147e-02
-4.855381015193845073e-02
-4.768781430315016667e-02
-4.585134589458549070e-02
-4.486926481137468170e-02
-4.329514903260493763e-02
-4.072966535187082238e-02
-3.787629028976480933e-02
-3.448660144463074062e-02
-3.165412172472079066e-02
-2.941599840505821836e-02
-2.708732860254203789e-02
-2.487242232976397821e-02
-2.216299295834189831e-02
-2.071889264212943907e-02
-1.914709856804815494e-02
-1.697398297966220757e-02
-1.483104955222208123e-02
-1.155512423682209140e-02
-8.125966411980330151e-03
-4.369448226071061779e-03
-1.290867809185345478e-03
2.094177626571828293e-03
3.122692803555663244e-03
3.366471795839172561e-03
1.868972271788751438e-03
4.179068197432296561e-05
-1.321049970145962834e-03
-4.165138213501754123e-03
-3.770448416464935483e-03
-4.959161216955447656e-03
-3.528991128869661455e-03
-1.903797846958043887e-03
-3.482557056959242284e-04
2.739611529939571695e-03
4.283545147759438079e-03
6.382366186114978024e-03
7.034765203569814766e-03
8.360458580671303874e-03
9.219489315398244830e-03
9.460946602993302451e-03
1.012263243920194511e-02
1.120222511932767069e-02
1.181515515707885419e-02
1.206589926342771339e-02
1.400916608766108844e-02
1.532325094132033425e-02
1.875008706147363730e-02
2.134575290315760682e-02
2.598916228005902426e-02
2.815763445906808299e-02
2.964352545967668603e-02
3.053970346941483130e-02
2.917918452198300927e-02
2.809959184184969080e-02
2.541802292668947708e-02
2.480277118424627225e-02
2.339117473366854327e-02
2.228139989258536013e-02
1.989933088223528809e-02
1.790034314547551964e-02
1.494713478176659845e-02
1.158298468819788513e-02
7.656982060028154000e-03
4.671269830676886246e-03
7.944873441392477989e-03
6.433443689207345335e-03
1.114418250207386239e-02
1.156673275536808203e-02
1.853184682072013187e-02
2.172186906264746836e-02
2.079550889195592306e-02
2.681801085379299787e-02
3.007304082700099079e-02
4.304440492137071028e-02
5.563500944683856531e-02
7.473335221402939432e-02
9.507380698954537301e-02
1.139051537175643780e-01
1.291192845409813716e-01
1.324834346345424851e-01
1.228019260837036747e-01
1.026843549582753395e-01
7.315923643524921416e-02
3.859601873828124446e-02
6.013215117873024632e-04
-3.051416472283151674e-02
-5.460417257019481441e-02
-6.959541974352417837e-02
-7.570614648352601284e-02
-7.608690605243574601e-02
-7.067036901428032369e-02
-6.583193644355309071e-02
-6.363792551296711120e-02
-6.989956305772219991e-02
-8.445432974961888939e-02
-1.009779020173256492e-01
-9.959184431832047990e-02
-5.264001040378778890e-02
7.748689397449172456e-02
2.429501437109853057e-01
4.556415102199451450e-01
6.635037309769236114e-01
8.473618469600152636e-01
9.326891376699476544e-01
8.740312687162428151e-01
7.536206984591251601e-01
5.688362223053413658e-01
3.827748085729061334e-01
1.968225149608317237e-01
6.077294192231100928e-02
-1.360751118158130130e-02
-5.596004810830106091e-02
-7.256023663072322383e-02
-8.070942008718871852e-02
-8.031008688077555246e-02
-7.459637164250251806e-02
-6.416727418198278632e-02
-5.177169285034889656e-02
-4.063447545985171550e-02
-3.097154054652421357e-02
-2.599148398979802752e-02
-2.132021415663933397e-02
-1.832289340384996024e-02
-1.321978649863943950e-02
-6.837420310089083186e-03
2.444755034332525383e-03
1.482176272846233607e-02
3.010322298784029460e-02
4.977502681308192817e-02
7.135527189222634625e-02
9.579353544285705568e-02
1.213624691767595659e-01
1.503489522120650124e-01
1.778588310655121463e-01
2.045468264592514851e-01
2.294981867460260672e-01
2.527825630664968237e-01
2.739449013017201673e-01
2.887689857374770575e-01
2.991841529698625046e-01
2.997436837997788373e-01
2.909165625742856642e-01
2.687396393902051761e-01
2.356901731501069852e-01
1.945472443660734574e-01
1.469917672325359304e-01
9.730728689969266043e-02
4.898100380958951561e-02
6.484521192189318314e-03
-2.954833557256791171e-02
-5.885985726425711079e-02
-8.104838897178341661e-02
-9.534776814795099809e-02
-1.044186683657314096e-01
-1.080498144984684827e-01
-1.089947483066718154e-01
-1.077363843655319148e-01
-1.048922961221839117e-01
-1.024591496086879466e-01
-1.003487200468903551e-01
-1.000399333233266547e-01
-1.000422550280190837e-01
-1.006900106360970049e-01
-1.009221811049460377e-01
-1.010173709971726869e-01
-9.986348376701670304e-02
-9.788306966776849638e-02
-9.455142343984584974e-02
-9.048147512099211087e-02
-8.672960034445988120e-02
-8.232996995984613597e-02
-7.783979309238660271e-02
-7.271346914028781194e-02
-6.824883102440122695e-02
-6.396992928358696817e-02
-6.032949633210037826e-02
-5.724162909646127867e-02
-5.542837773478532376e-02
-5.422805641085657463e-02
-5.304166531506226967e-02
-5.052725913747046355e-02
-4.808018239584747194e-02
-4.397773021135546745e-02
-4.016781281761198918e-02
-3.541063991097691266e-02
-3.180503252981710383e-02
-2.904916906462643583e-02
-2.634438310258545995e-02
-2.474008516286628837e-02
-2.155470633031604175e-02
-1.950464109041435620e-02
-1.625425452658749159e-02
-1.338927094103964377e-02
-1.049178348985727212e-02
-7.515358079263792339e-03
-6.222168567800788301e-03
-4.497141984282184042e-03
-4.211572307606738057e-03
-1.611263056542258871e-03
-3.436122966522091207e-04
1.989700915240450764e-03
2.667638684264046420e-03
4.720025628854184092e-03
6.022501959070991444e-03
5.017203828971686028e-03
5.126323949324882931e-03
3.266638493875755923e-03
7.661625469108760550e-03
7.185676007976194574e-03
1.152958548006328618e-02
1.273455021336895691e-02
1.771460677009151566e-02
1.968573405058588952e-02
1.747547118717693304e-02
1.891957150339301785e-02
1.731295185898121605e-02
1.811626168118493987e-02
1.592225075059514050e-02
1.649803351333071003e-02
1.736170765743035027e-02
1.738724640900313895e-02
1.703434729635465786e-02
1.699023490727393296e-02
1.596171973028632715e-02
1.580384381147152684e-02
1.634015759449964147e-02
1.729205651676422179e-02
1.945124187701930893e-02
2.281771367527251140e-02
2.971782000934372267e-02
4.086664592328335260e-02
5.530532738075365218e-02
7.461030186522027430e-02
9.533151620963786765e-02
1.171346449388773747e-01
1.340157597285977220e-01
1.422949586476124073e-01
1.396923276918553003e-01
1.241136892323515539e-01
9.909499950960390380e-02
6.565316517716121569e-02
3.047469573775370838e-02
-2.927669614985306968e-03
-3.000338969170021283e-02
-4.900422086198014809e-02
-5.752719877328628384e-02
-5.724162909660704401e-02
-5.165328591151045756e-02
-4.353660632068732245e-02
-3.626502723646403414e-02
-3.550350809865239488e-02
-4.556345451371286021e-02
-6.348469300386321013e-02
-7.510482496956247256e-02
-5.024865457501047350e-02
3.471877190821223008e-02
1.804544969069448446e-01
3.583481535454029476e-01
5.631921582073993182e-01
7.476933863891879195e-01
8.656406279718552588e-01
8.615730013576858859e-01
7.607947659461101741e-01
6.080846400632679005e-01
4.220557301964745212e-01
2.431056979247634975e-01
8.994748303705371595e-02
-2.955530071301093551e-03
-5.539819557402372169e-02
-7.981324207777425184e-02
-9.106654470269470725e-02
-9.391759806011604206e-02
-8.937402198481862736e-02
-7.950213364953066797e-02
-6.565780859230012367e-02
-5.205261911798357566e-02
-3.972901063168816221e-02
-3.109226919065590650e-02
-2.516727882573032565e-02
-2.192617908065729385e-02
-1.705524264428828762e-02
-1.066126793229934568e-02
2.739611503026314807e-04
1.413918154972561118e-02
3.142427295523998743e-02
5.205029740743112587e-02
7.449653833537119019e-02
9.812452694972897960e-02
1.223515153737106814e-01
1.486703597219826978e-01
1.769556879413759221e-01
2.063902599815486683e-01
2.336679683661542495e-01
2.612474983602550149e-01
2.856996921390160260e-01
3.057499338284715984e-01
3.188048792916287622e-01
3.235295483326218746e-01
3.184287631320953382e-01
3.015290747048595676e-01
2.729651419228512066e-01
2.343505495445368791e-01
1.875682000722566634e-01
1.380462390676014117e-01
8.911863446319286119e-02
4.427955181514250937e-02
6.375401071497384560e-03
-2.261108196381227120e-02
-4.368287371619053450e-02
-5.759917161876734748e-02
-6.634503318016135576e-02
-7.108363244929297164e-02
-7.323120928611036307e-02
-7.436420117407814556e-02
-7.413435240992215236e-02
-7.403916251769952772e-02
-7.259506220148388700e-02
-7.103487665084891323e-02
-6.868066809676065532e-02
-6.579943257839729331e-02
-6.248171657860201317e-02
-5.945189196017781202e-02
-5.729967171398472892e-02
-5.587646673996835012e-02
-5.504529646150366218e-02
-5.422109129710752512e-02
-5.529604056786076305e-02
-5.552588933202120408e-02
-5.519852897095025440e-02
-5.283967700748828239e-02
-5.159059988510245748e-02
-5.068281335192210968e-02
-4.745100042559944470e-02
-4.379663724598203967e-02
-4.049052976962896205e-02
-3.772305778099966506e-02
-3.408958994357506878e-02
-2.914435895717911937e-02
-2.501404631642608831e-02
-2.199583022144412786e-02
-1.823234692146630948e-02
-1.429705747454635377e-02
-8.764435201969176734e-03
-4.757172909707257057e-03
-1.585724305284340720e-03
2.112751263413650653e-03
4.831467453588696864e-03
6.800273029390987815e-03
7.812536273554840371e-03
1.034319438396217455e-02
1.587581665653935159e-02
2.044957489278322049e-02
2.657423186091530110e-02
3.335825296056415395e-02
4.137045584040656421e-02
4.798731420248696783e-02
5.362209148135596570e-02
6.044790326539693087e-02
7.117882233541503179e-02
8.357208196236054487e-02
9.925055372346688887e-02
1.165727924039930280e-01
1.356200576680411385e-01
1.546301756570708785e-01
1.662270905758809758e-01
1.679033613609384745e-01
1.586792286337236346e-01
1.409089009483187882e-01
1.129996888884534922e-01
7.782354115373453507e-02
3.981027028973221221e-02
8.581020525379285183e-03
-1.849702125602069314e-02
-3.704976342143334600e-02
-4.902975961383906206e-02
-5.095909620994541062e-02
-4.798499250404078542e-02
-3.846135987202031065e-02
-3.274532292905553421e-02
-3.178645889272933844e-02
-3.951309209589354277e-02
-5.336670397188218729e-02
-6.149034867677143773e-02
-5.251231664653684128e-02
1.532557264530070781e-02
1.399802190728981210e-01
2.922794032258800856e-01
4.785311967427603452e-01
6.476000538604209655e-01
7.784582952155586488e-01
7.933636393154108735e-01
7.170074155216440426e-01
5.989882010936337098e-01
4.325939477770641139e-01
2.682590465191527773e-01
1.179634935122996636e-01
2.850356845692027588e-02
-2.495832540403516292e-02
-5.602505584019344675e-02
-6.881997037824809371e-02
-6.968132281766405145e-02
-6.660738581015882009e-02
-6.015072507157845361e-02
-4.951035248441271880e-02
-3.754660822482751986e-02
-2.585450341379363220e-02
-1.798160281525840176e-02
-1.193356210184791551e-02
-6.431121990220780953e-03
-1.715739767980939239e-03
4.991665076952055136e-03
1.298529431928415259e-02
2.654172799514641426e-02
4.267757557987477551e-02
6.069400396225063665e-02
8.079300145016415913e-02
1.021550062885973886e-01
1.258944367280014354e-01
1.499844445753640287e-01
1.737494137663410376e-01
1.996085605863030521e-01
2.241095101635189324e-01
2.474705027387081036e-01
2.662461285542048750e-01
2.796168258549910912e-01
2.862406493311375755e-01
2.835962276909914093e-01
2.705853946169111679e-01
2.477444638919333308e-01
2.165732567447923862e-01
1.783788929150906810e-01
1.365348093151423914e-01
9.299820299731587081e-02
5.415608355953420439e-02
1.851559488712818322e-02
-1.074484930141784457e-02
-3.372740401239118779e-02
-5.044599947392707645e-02
-6.193843768175841952e-02
-7.095361698701517505e-02
-7.534163884818768919e-02
-7.743117306779626063e-02
-7.633068504547159405e-02
-7.376752306942516157e-02
-6.970221815994906422e-02
-6.443659192654613288e-02
-5.956101208080075843e-02
-5.550731569476907018e-02
-5.354779693771768295e-02
-5.180419671669434650e-02
-4.983306943620069429e-02
-4.757869418371823977e-02
-4.407524180884720560e-02
-3.991706871183523658e-02
-3.263620280885507624e-02
-2.592183284985898756e-02
-2.028241216161339594e-02
-1.640516533190395157e-02
-1.446886362173706829e-02
-1.271365487727147206e-02
-1.427848383728809629e-02
-1.510036729700266721e-02
-1.528610367207963033e-02
-1.425758849509907271e-02
-1.205893415513726794e-02
-9.925287546454225271e-03
-6.832776901438940460e-03
-3.596320565741861850e-03
-6.082866317068535847e-04
2.226514792888272150e-03
5.657994322417344082e-03
1.069609349635209337e-02
1.671395204881513316e-02
2.422234501126132797e-02
3.529455467048132900e-02
5.141647202707925329e-02
7.072376821623353738e-02
9.382937327569089436e-02
1.178381214589576675e-01
1.403958042119407557e-01
1.570517136468844444e-01
1.636314247339505368e-01
1.611820262876342280e-01
1.442707293369571708e-01
1.210351088149426019e-01
8.941116925355403755e-02
5.696534623245598505e-02
2.616561183546736377e-02
-1.968805579177924057e-03
-2.184259771231801886e-02
-3.655756202771881513e-02
-4.296546696784541569e-02
-4.531503211255830110e-02
-4.309316072571402895e-02
-3.957577812271223516e-02
-3.610715131816998047e-02
-4.136581243751147330e-02
-5.211762684972916226e-02
-6.702297094958289958e-02
-6.982991191792263519e-02
-4.029318487145500810e-02
4.772728327708125606e-02
1.791334469386959560e-01
3.451562275051070494e-01
5.269108790404616327e-01
6.887987035567423311e-01
7.821242669183900986e-01
7.671283763356846475e-01
6.827065504542426666e-01
5.486536434477905511e-01
3.834829285020365797e-01
2.207151779088273869e-01
9.307946266125438628e-02
1.437599542746463739e-02
-3.100404441299196845e-02
-5.638259836244829959e-02
-6.066150010326391839e-02
-5.819352801944370490e-02
-5.149773169795333894e-02
-4.086664592954081937e-02
-2.848499482603492408e-02
-1.530699901439208470e-02
-4.174425033272618872e-03
3.628824424607071403e-03
9.929930949060833401e-03
1.545094469819359266e-02
2.260643854799716801e-02
3.166573024232864630e-02
4.231771135293882491e-02
5.676800133385261765e-02
7.329157360155434675e-02
9.119656015888263911e-02
1.097284069820941149e-01
1.283136530131383790e-01
1.500424871923464465e-01
1.707265542617499576e-01
1.936301710133140619e-01
2.160833770553169664e-01
2.398576330650500354e-01
2.615562850833065278e-01
2.784257913495875036e-01
2.895305048744440390e-01
2.909978222375435575e-01
2.863219089950012619e-01
2.660000278569918386e-01
2.374198431421620792e-01
1.972868558976037523e-01
1.563203766698900432e-01
1.105595772605275084e-01
6.320608843488619011e-02
2.291754697620170325e-02
-1.202643028967113892e-02
-3.812703439723399979e-02
-6.029467076256317393e-02
-7.460798016686230605e-02
-8.434288792553851222e-02
-9.135675778934893021e-02
-9.652487242584278926e-02
-1.003278247055260364e-01
-1.034365872833642591e-01
-1.056282765092627640e-01
-1.057095361733614430e-01
-1.042190017633772420e-01
-1.015351111435312814e-01
-9.790628671548406992e-02
-9.340217961989280560e-02
-8.800421621924624238e-02
-8.327258206418682029e-02
-7.832270766841123444e-02
-7.340301543358733471e-02
-6.839974182997737850e-02
-6.429496794079966882e-02
-5.923133001528999714e-02
-5.465989348373373469e-02
-5.105660780725949921e-02
-4.731866325885699526e-02
-4.331604437596926066e-02
-3.896516978981581780e-02
-3.698475569056855483e-02
-3.357881491261451024e-02
-2.954833557346537090e-02
-2.657655357225158568e-02
-2.396231409305730684e-02
-2.096731504495902287e-02
-1.621942895707863957e-02
-1.381878630922371044e-02
-1.096773295180747052e-02
-8.009881178724396339e-03
-3.923680927052435388e-03
-7.940230070240159553e-04
2.003631142557859256e-03
6.442730506872416246e-03
1.114418250098379339e-02
1.669537841106618486e-02
2.373478702644731680e-02
3.148231557180398987e-02
4.154690539623623335e-02
5.290700643682204329e-02
6.905214084030640576e-02
8.876573534993750791e-02
1.093615776411816509e-01
1.334121165088384964e-01
1.548182337363519512e-01
1.743484135755954678e-01
1.826554729508705899e-01
1.806797022609962222e-01
1.665614160505270447e-01
1.419467029435708683e-01
1.095612442443722190e-01
7.179871748672031484e-02
3.567299253442776652e-02
3.417549297780658833e-03
-2.037760205415075493e-02
-3.756982527213034023e-02
-4.445600137807600299e-02
-4.484604776573859058e-02
-3.942718902289606836e-02
-3.126175363361818199e-02
-2.428503104482530178e-02
-2.429663956827043600e-02
-3.309357863281094797e-02
-4.870472095795568002e-02
-5.560714899672052070e-02
-3.268263690296215745e-02
5.313221179154779122e-02
2.117069637174095187e-01
3.931505068245112477e-01
6.085095120204978558e-01
7.912230275921822154e-01
9.258818995223140336e-01
9.261256785146001480e-01
8.125409200415282251e-01
6.568427602246528219e-01
4.596301988735903010e-01
2.787392214823373182e-01
1.123426464610796649e-01
1.567847175743769528e-02
-3.523186865091010311e-02
-6.018787234706679534e-02
-7.115560529531041178e-02
-7.292474426791097086e-02
-6.926109426953887260e-02
-5.980246936879232006e-02
-4.556577621921614751e-02
-3.115263351331599984e-02
-1.600118871649027982e-02
-5.674246262263232810e-03
1.908441250213524683e-03
7.701094447896544848e-03
1.322675160640607132e-02
1.970198598249356739e-02
2.746808816535793035e-02
3.964775096096854329e-02
5.610399379270351872e-02
7.552969692096843379e-02
9.686151959844967185e-02
1.203827097971414684e-01
1.451947678026101474e-01
1.715066470368195872e-01
1.975306348896594677e-01
2.228743632687850418e-01
2.476028399054694684e-01
2.704530574491991191e-01
2.909119191638228630e-01
3.048723294554753216e-01
3.119535287552467895e-01
3.097014752074485622e-01
2.950909876030261003e-01
2.687233874562914293e-01
2.299903881388672688e-01
1.838116818855836665e-01
1.325275470223957197e-01
8.037277290104025140e-02
3.297749339100704280e-02
-7.357482161446392971e-03
-3.948987504960532746e-02
-6.301338695298792925e-02
-7.889384702199263300e-02
-8.776043722718657181e-02
-9.316304403721370475e-02
-9.594444625397864634e-02
-9.669203516366228768e-02
-9.606053148840484890e-02
-9.452588468934157440e-02
-9.323733858725263834e-02
-9.121281209892627417e-02
-8.929276232157881688e-02
-8.694087547218086465e-02
-8.565465107478045792e-02
-8.542015890124943223e-02
-8.349314400983665063e-02
-8.241122962502113458e-02
-7.887759508920053064e-02
-7.519537145332035044e-02
-6.922859040400354547e-02
-6.221936394957366945e-02
-5.500118407318200370e-02
-4.833092650326591133e-02
-4.267989729157840167e-02
-3.783682131147292349e-02
-3.448427974135151453e-02
-3.136390864007639057e-02
-3.010090128956052422e-02
-2.632116605676543264e-02
-2.513709666565687798e-02
-2.366281418849324261e-02
-2.177758998147260455e-02
-2.038224546371628781e-02
-1.738492471092780572e-02
-1.632854907768526570e-02
-1.227253098696330993e-02
-7.215858175520380689e-03
-3.721692619403469890e-03
3.993332025938661962e-04
3.076258708376165135e-03
6.709726545798875771e-03
8.253660163617280651e-03
9.022144415491945707e-03
1.258363940757393877e-02
1.507947194765585364e-02
1.893814513985951631e-02
2.196100464421971155e-02
2.769561522469146317e-02
3.373436911934899612e-02
4.047892123929675706e-02
4.956375168520148200e-02
5.973978333467921259e-02
7.449653833446877316e-02
9.158428484146392823e-02
1.117575768794087654e-01
1.318078185688668635e-01
1.513751456831261277e-01
1.674483072412683571e-01
1.772784048921657585e-01
1.746850607551651002e-01
1.632320915270357997e-01
1.405118894458569079e-01
1.121453015623650046e-01
7.821358754065811658e-02
4.278205229021107142e-02
1.355179026261664650e-02
-1.085396942237851041e-02
-2.557589885184511497e-02
-3.444481076172883210e-02
-3.437051621169975868e-02
-3.076723053522683118e-02
-2.527639894704250198e-02
-2.033813307471048562e-02
-2.259483003188581668e-02
-3.268728031258300026e-02
-5.143040226244605106e-02
-6.508434753522646110e-02
-5.322043657724519899e-02
1.437367372230320163e-02
1.625634405767269475e-01
3.374946020327235785e-01
5.551103041858856946e-01
7.517006486804381771e-01
9.108999391674945656e-01
9.492893261910229086e-01
8.563073751232634923e-01
7.130256919802204774e-01
5.140114877909222058e-01
3.250386563791715644e-01
1.437135202111784471e-01
2.583128635978524518e-02
-3.742820128642934674e-02
-6.993903203880548480e-02
-8.236479553139418319e-02
-8.537836821700540979e-02
-8.151272991073624241e-02
-7.255791492738461468e-02
-5.845123724035983931e-02
-4.326264516851834052e-02
-2.724288281821031499e-02
-1.516305332420416103e-02
-6.440408809696380153e-03
3.621859274615476685e-04
6.231455379863541991e-03
1.202178687285701368e-02
1.890099786473502241e-02
2.971782000822406275e-02
4.506660970356987650e-02
6.351487515799607297e-02
8.456344986348808546e-02
1.080916051762442209e-01
1.350140927435162508e-01
1.614861696012277748e-01
1.891678546016231366e-01
2.156143927077617817e-01
2.418659076200715130e-01
2.659605588768096385e-01
2.848592350407963547e-01
3.004401952049861602e-01
3.066855808169170472e-01
3.063907243214815668e-01
2.933822129520914923e-01
2.703625109661014769e-01
2.357157119003519263e-01
1.919608653418094779e-01
1.438481790830464235e-01
9.313286186852914872e-02
4.535450108490293036e-02
1.961840457758843703e-03
-3.343022581298339679e-02
-6.087974034453721289e-02
-8.011506368835172309e-02
-9.242242024183071336e-02
-9.969167762137082223e-02
-1.035573159276434452e-01
-1.032578160228345560e-01
-1.013331228361113168e-01
-9.902070496641576791e-02
-9.594908966359794178e-02
-9.198826146510245827e-02
-8.738664277259564073e-02
-8.426627167131929552e-02
-8.134556717325069908e-02
-7.864078121120703091e-02
-7.640730130091978600e-02
-7.419703843751611350e-02
-7.261363583999504157e-02
-6.971382668412152983e-02
-6.676061832041459143e-02
-6.351487516596197869e-02
-6.049201566160149895e-02
-5.720216011806827927e-02
-5.285360723660251919e-02
-4.980520898066817526e-02
-4.777371737827609821e-02
-4.537539643510793419e-02
-4.404970305800483266e-02
-4.262881978867437416e-02
-4.226895556196672010e-02
-4.170245961798607626e-02
-3.832205759160418890e-02
-3.565209719988732262e-02
-3.126175363402942248e-02
-2.728235179802642255e-02
-2.291058186967613250e-02
-1.784926564885515668e-02
-1.415543348953244608e-02
-9.946182889372840591e-03
-6.716691667740254910e-03
-4.086200255727056620e-03
-1.074949274808827777e-03
8.915345963074989633e-04
2.495832536024662502e-03
4.459994702452538956e-03
6.946540423780930666e-03
9.595605473301732982e-03
1.212858528839913172e-02
1.078199656909644560e-02
1.290635635902653844e-02
1.008084175318081643e-02
1.106060113170477012e-02
9.161446696550839749e-03
1.015049289382860716e-02
1.644231259952839280e-02
1.968805575398014512e-02
2.687837517411031940e-02
3.071847472880543176e-02
3.752571287534124667e-02
4.072270023133554850e-02
4.442814091410136890e-02
4.687986106510301509e-02
5.124698758407725957e-02
5.470168416048957344e-02
6.250029020899382226e-02
7.508160791570546444e-02
9.081115717995694170e-02
1.113094878742851013e-01
1.318449658436293415e-01
1.541101138058683373e-01
1.692963841730223129e-01
1.740164098046401708e-01
1.660924317029568442e-01
1.460166512619222867e-01
1.185276677506657689e-01
8.265036520003640752e-02
4.635051239610983587e-02
1.392558471720648818e-02
-1.020621381455047091e-02
-2.321704688862986227e-02
-3.231812926735763702e-02
-3.031449812122698553e-02
-2.723127429496598889e-02
-1.908905595257194901e-02
-1.512126264001127304e-02
-1.862935842426235999e-02
-2.811352207658448718e-02
-4.780389953933627395e-02
-6.250493362660689001e-02
-5.671924554299021676e-02
1.046624473139189278e-02
1.446027331066231936e-01
3.164715660785544782e-01
5.225507176348045402e-01
7.176319540818647535e-01
8.751364001463510789e-01
9.095533504479412779e-01
8.314697783659682484e-01
6.911227299491277121e-01
5.054211804434036726e-01
3.223826262153335342e-01
1.490905882693779883e-01
3.830348394589054573e-02
-2.546213532240782298e-02
-5.679354009305033479e-02
-6.965810577175769736e-02
-7.535556907721714659e-02
-7.367001147340460077e-02
-6.745480802242398433e-02
-5.634080767881354673e-02
-4.483676094754249219e-02
-3.463519054649317336e-02
-2.656494504944054147e-02
-2.103928789093076693e-02
-1.579920040909939608e-02
-9.507380703400939229e-03
-1.817894775254182051e-03
8.358136874222137774e-03
2.104857470129149061e-02
3.691974795153714350e-02
5.441843618838769492e-02
7.132044632030543063e-02
8.971763427158635507e-02
1.104620656628898384e-01
1.334631940113683302e-01
1.574347949196181484e-01
1.836375540334700684e-01
2.110011654915462387e-01
2.380258080651096175e-01
2.621877887578125677e-01
2.831040262960625165e-01
2.962402314233134049e-01
3.007559470423484260e-01
2.951699255619336104e-01
2.788599501255668578e-01
2.508857303344229073e-01
2.125752812702982886e-01
1.682771558146581026e-01
1.194168806462140020e-01
7.217251194093003697e-02
2.757720828516969577e-02
-1.089808181183634164e-02
-4.139599459932462311e-02
-6.391188666792120554e-02
-7.853862620516119386e-02
-8.873787490152733326e-02
-9.349272610347532375e-02
-9.452820639452692852e-02
-9.470001254147342173e-02
-9.341146643938598448e-02
-9.143801745420411520e-02
-8.848016568112068714e-02
-8.523906593604479998e-02
-8.213726847227738326e-02
-7.700630111080269957e-02
-7.138777576475481557e-02
-6.739444370062093459e-02
-6.306214275197470631e-02
-5.927312070042443926e-02
-5.490135077207453779e-02
-5.325061873858728811e-02
-5.088015825168179518e-02
-4.735581053461491302e-02
-4.446993160687340296e-02
-4.218305248875067748e-02
-3.956416960018100532e-02
-3.626502723789383487e-02
-3.326074137104135381e-02
-3.060006779807810870e-02
-2.699910382629382502e-02
-2.385087226875594671e-02
-2.046350512830913057e-02
-1.731527357077125920e-02
-1.419954587887315399e-02
-1.210072484051495124e-02
-8.866590209505864628e-03
-6.071257764612485348e-03
-2.881235522683957967e-03
-2.391355872283179671e-04
3.004285862534575649e-03
7.480532501866182966e-03
1.038730677180374137e-02
1.423669314525368573e-02
1.731527356213659330e-02
2.048672216655895648e-02
2.235801614544754776e-02
2.445683718380573662e-02
2.653011947058953393e-02
2.974568046409247282e-02
3.395957447362772663e-02
4.112899855156201129e-02
5.029044525218550471e-02
6.324555741373866224e-02
8.070013326150775324e-02
1.022873434547201948e-01
1.229156896116012365e-01
1.439665860217816395e-01
1.608964566099609084e-01
1.699162793245903302e-01
1.676085048642679265e-01
1.522156027798393652e-01
1.308280591898299539e-01
9.979847602868655021e-02
6.593409144294362645e-02
3.241331915109269685e-02
4.420525722441337457e-03
-1.630533203135831402e-02
-3.119210249370602331e-02
-3.793201120427925482e-02
-3.820597235751886644e-02
-3.390849697919794126e-02
-2.830622356596907904e-02
-2.301273687630284864e-02
-2.406446910017341970e-02
-3.247368348174263508e-02
-4.468352843830681459e-02
-5.089641018460173971e-02
-2.896558769749980541e-02
5.132360383849780827e-02
1.795211716206722707e-01
3.404872793756398286e-01
5.209998189026716631e-01
6.884922385368741349e-01
7.997297535699168236e-01
7.945848559803097011e-01
7.131255252813289980e-01
5.801916799347125453e-01
4.162839723394738400e-01
2.508160791935990508e-01
1.127651967136347883e-01
3.070222279565938336e-02
-1.728741311461754609e-02
-4.170710302774140177e-02
-5.320882805432867318e-02
-5.291629326358431723e-02
-5.460185086740242805e-02
-4.689611300643532765e-02
-4.227127726704468097e-02
-3.064650189197298466e-02
-2.108107857555943307e-02
-1.420186758368077382e-02
-5.177401459676216240e-03
-2.354208558520756982e-03
4.631800849024168831e-03
9.101082374291096302e-03
1.639820021008840320e-02
2.610292580781143831e-02
3.796915847047950543e-02
5.496171508524901050e-02
7.284580630038106630e-02
9.347879586664112339e-02
1.180842221548376730e-01
1.415195092800575760e-01
1.660552844276005913e-01
1.889797965213613484e-01
2.117510761056819457e-01
2.300345005272299292e-01
2.436861240953166197e-01
2.540711091667558486e-01
2.573841817571718704e-01
2.514684782109994909e-01
2.373734090474130254e-01
2.142051179613643774e-01
1.845778444320433920e-01
1.475861236309598257e-01
1.083841399664685207e-01
6.977419099753488785e-02
3.400368686257356637e-02
3.593998853247474135e-03
-2.284093072945397873e-02
-4.270311433914900090e-02
-5.796600096102615118e-02
-6.918447801561956878e-02
-7.772602956443219746e-02
-8.402481438419880100e-02
-8.757470085284264905e-02
-8.884931672680218551e-02
-8.841980135944166319e-02
-8.522745741282224119e-02
-8.153594695818863758e-02
-7.594992547777661140e-02
-7.059375276152393686e-02
-6.504952196550402299e-02
-6.056631021210876625e-02
-5.752487707023860863e-02
-5.420716107044554893e-02
-5.106125121759511748e-02
-4.755315543334911327e-02
-4.459994706964005851e-02
-4.158405267934556920e-02
-3.724478661663150475e-02
-3.282890429920129471e-02
-2.934634726652548750e-02
-2.668567369356393548e-02
-2.390194977211175520e-02
-1.975770690323027517e-02
-1.705524264587386651e-02
-1.400220098056417090e-02
-1.180354664060154213e-02
-8.827121230010717343e-03
-6.767769171355125270e-03
-4.956839514366503593e-03
-2.932313026037670044e-03
-7.220501626355455612e-04
2.200976040123672501e-03
6.287176291793887886e-03
1.116739954691696630e-02
1.686950626174880258e-02
2.183795429503300467e-02
2.660905742979615546e-02
3.283586940422058426e-02
3.896516978172733653e-02
4.553327234535401585e-02
5.249374300132607363e-02
6.302267376344945771e-02
7.841325414318565945e-02
9.525025654382932028e-02
1.153655059645624786e-01
1.354180693587101747e-01
1.546394624743898660e-01
1.671975631342190460e-01
1.688552602817699477e-01
1.606271388659008259e-01
1.423112105787111836e-01
1.164961761478287144e-01
8.462613588946438226e-02
5.275377392641428936e-02
2.424556205692643060e-02
1.564828955452266229e-03
-1.594546780484507043e-02
-2.648136368103413962e-02
-3.127336215799907115e-02
-3.138480398304493990e-02
-2.796725468164854012e-02
-2.416894581134359371e-02
-2.472615493657464095e-02
-3.197683867860609541e-02
-4.564239247482923534e-02
-5.987676391972011208e-02
-6.074043806382663224e-02
-1.813715703075831007e-02
8.694551887320148276e-02
2.267980441914001499e-01
4.017361707614616750e-01
5.787615098464430341e-01
7.336192125660949692e-01
7.951211697631515030e-01
7.515033037812268724e-01
6.500633825334432014e-01
5.009077865286194475e-01
3.347085564058830398e-01
1.736217200071116795e-01
6.042468621701400922e-02
-6.182699589948516955e-03
-4.545897780446744169e-02
-6.544885517203034853e-02
-6.891516027188716864e-02
-6.736426154000536848e-02
-6.135568980629523689e-02
-5.279092121060417059e-02
-4.090147150104862794e-02
-2.904452565713462261e-02
-1.957429223294459425e-02
-1.357965072736837947e-02
-8.149183461082405711e-03
-3.877246834336527375e-03
9.983330114097586742e-04
7.308726354615258797e-03
1.626818474734615522e-02
2.920704497607812603e-02
4.421918749159973322e-02
6.324787911813764540e-02
8.313095807002861271e-02
1.050339201008683859e-01
1.283809824479276440e-01
1.524106259733881419e-01
1.765052772301285433e-01
1.982921540265457361e-01
2.194823527180344847e-01
2.371226649408788301e-01
2.504980056510428543e-01
2.578485226946741760e-01
2.549533569481763351e-01
2.446589183595832828e-01
2.214024024953735736e-01
1.913340050752467825e-01
1.508388318992913424e-01
1.078269308410524790e-01
6.453410351551408519e-02
2.399481795047509955e-02
-9.402903992886839368e-03
-3.934360765514881980e-02
-6.097028682806622524e-02
-7.955321115442785807e-02
-9.281711003954622174e-02
-1.046554822459588724e-01
-1.121290496380813878e-01
-1.170673155104188512e-01
-1.193309775816582263e-01
-1.193750899707417684e-01
-1.179100943123294470e-01
-1.150961882299302713e-01
-1.132666849354311694e-01
-1.108544337641338973e-01
-1.085954151022714281e-01
-1.067519815796445504e-01
-1.034528392173561934e-01
-1.005460649474189255e-01
-9.691724051937060380e-02
-9.295641232087674399e-02
-8.827353396427183030e-02
-8.279895430890818475e-02
-7.836682005865600043e-02
-7.298743029551885142e-02
-6.819078840917994211e-02
-6.325948765091374271e-02
-6.010429097930943682e-02
-5.686319123423528438e-02
-5.402374640026025993e-02
-5.095213109744297503e-02
-4.809179092127189442e-02
-4.584205907816610998e-02
-4.259631592371222047e-02
-4.001690201484646436e-02
-3.797844529838687727e-02
-3.628824428519770301e-02
-3.567763595213523792e-02
-3.265941985715230950e-02
-2.991052150602685131e-02
-2.618650718575495084e-02
-2.224889603414277953e-02
-1.780515326045118904e-02
-1.175711254703741201e-02
-9.289140463217290464e-03
-6.521668474584213504e-03
-5.732288880513876535e-03
-3.108762582564735758e-03
-2.881235523099444622e-03
-2.351886854132748117e-03
-2.451720155738991696e-03
-1.490534414720482738e-03
-1.105131436440549364e-03
-1.297832925581988723e-03
-1.597332830394983163e-03
-1.595011125706571583e-03
-9.681508598277765564e-04
-6.825811831483913393e-04
1.230503437410998026e-04
1.276937531179615066e-04
3.807595641562083939e-04
1.671627328187120945e-04
-9.077865379367839292e-04
-1.332658495923285747e-03
-2.015239674330629362e-03
-1.996666036823066103e-03
-1.653053742935242871e-03
-2.135968360959107192e-04
2.658351863514617653e-03
3.840099549935932326e-03
6.319680157198305850e-03
8.736574737875341112e-03
1.154351570620924979e-02
1.397666221970544388e-02
1.710167673035708699e-02
2.148505518215179308e-02
2.620043740439210317e-02
3.173770308634678294e-02
3.881193727205288491e-02
4.576079940458552958e-02
5.606452481192641946e-02
7.032907841776686597e-02
8.778597597022409771e-02
1.093337171837340527e-01
1.297507882139658231e-01
1.514819440978633636e-01
1.650290909549698148e-01
1.691222563207081531e-01
1.611889914002695989e-01
1.400289748697307601e-01
1.122962123661855327e-01
7.662554153283045177e-02
4.179300609200329447e-02
1.001351231649146717e-02
-1.405095677930181218e-02
-2.941832011215633411e-02
-3.692206966523146894e-02
-3.756518186393228292e-02
-3.377848151707212726e-02
-2.732414248317945396e-02
-2.159649701677458788e-02
-2.203994261226865231e-02
-3.026806402814036581e-02
-4.519662517487773451e-02
-5.683068736870649368e-02
-3.679669761206623424e-02
3.449588825618361831e-02
1.870481382202073550e-01
3.653480931791454611e-01
5.801104202702029866e-01
7.781262914434635691e-01
9.216006760756455529e-01
9.548637391470743419e-01
8.511206868483480736e-01
7.017050599184179172e-01
5.043253358297904443e-01
3.147070705146495229e-01
1.428893150458632189e-01
2.852446379747156438e-02
-2.621204593743935163e-02
-5.549570717287022337e-02
-6.571352950674085036e-02
-6.965578406773338671e-02
-6.644950989298260835e-02
-5.739253990334026306e-02
-4.494588106855609833e-02
-2.966674251386610187e-02
-1.595707632856480790e-02
-2.646743349680911843e-03
6.721335068217779672e-03
1.471264260586133306e-02
2.145022961174549228e-02
2.944385885407748565e-02
3.847761179683929084e-02
5.023240263446126369e-02
6.547903732351689765e-02
8.245534200546426884e-02
1.028933083778954538e-01
1.241113675256420995e-01
1.479947436557339513e-01
1.722751312875469287e-01
1.980019409402685726e-01
2.231181422599238517e-01
2.481252234592257744e-01
2.706480806418816720e-01
2.915736049988874590e-01
3.082434446619594093e-01
3.193226194352463132e-01
3.240797923418783366e-01
3.159097135432213377e-01
2.996879628850137034e-01
2.695963484180060599e-01
2.309237134224809973e-01
1.828504961434234966e-01
1.311925668253940691e-01
8.218370255689098902e-02
3.507631442822477241e-02
-3.672936822015112571e-03
-3.619769780252309749e-02
-5.791724516297781095e-02
-7.333104258960489175e-02
-8.253427997462238486e-02
-8.653225544813780701e-02
-8.763042176577424958e-02
-8.548284492896091047e-02
-8.364869822508425035e-02
-8.050511007692563725e-02
-7.732669635843605893e-02
-7.487265450274727119e-02
-7.126472541689433948e-02
-6.901035016441228742e-02
-6.566477370835431537e-02
-6.334539072459566267e-02
-6.035735679055911213e-02
-5.726020273616948958e-02
-5.461810280071208168e-02
-5.151166192756867490e-02
-4.862113959044703920e-02
-4.509447016869408409e-02
-4.226199044878371780e-02
-4.003315394787464870e-02
-3.831509247842056903e-02
-3.659470930428217195e-02
-3.559869799293623183e-02
-3.670382942464221060e-02
-3.653666668707313686e-02
-3.716120524826983101e-02
-3.678276738405174273e-02
-3.736551526085631764e-02
-3.672472476684331827e-02
-3.329324523731680419e-02
-3.074401348939741208e-02
-2.710125883322189386e-02
-2.457060072281010837e-02
-2.040778421642166010e-02
-1.715275424321328554e-02
-1.501678592984220274e-02
-1.305494546810081168e-02
-9.720977535489221111e-03
-6.479877790411547184e-03
-3.185378837503617232e-03
-1.044767114751527989e-03
1.386057694052777274e-03
3.659006584046552678e-03
4.706095398534297126e-03
5.070603034621678704e-03
4.227824232710634435e-03
4.627157439124773668e-03
3.661328288725848503e-03
2.149898536545142864e-03
1.276937573684239994e-03
1.160851847929910059e-05
5.223835499349555002e-04
-9.797593834919465002e-04
1.123705064240822530e-03
7.754493609738699307e-04
1.302476325248679663e-03
2.022204778669003510e-03
2.080247395876790462e-03
3.287533833871740356e-03
2.342600025668867009e-03
2.948564949355111323e-03
2.168472174032231182e-03
1.186391090818263465e-03
-1.462674003558603623e-04
-1.776104091647545593e-03
-3.085545535937163440e-03
-2.310096169994026432e-03
-2.219549687147930484e-03
-4.610905516251416827e-03
-4.283545155183357198e-03
-6.593641320191071485e-03
-5.822835363628947429e-03
-1.003208596378925288e-02
-9.430764449484022385e-03
-5.356172721252577817e-03
-2.644421645145752890e-03
2.117394670867070536e-03
4.671269828159253443e-03
1.019924869136077522e-02
1.124633750584851447e-02
1.176872106075053936e-02
9.672221727076161374e-03
9.542206264523565504e-03
6.881532691555691285e-03
5.279556456525416781e-03
3.503452369857224056e-03
2.630491407000438552e-03
1.697166122239814143e-03
7.383020859103562282e-04
5.572090750239711774e-05
1.574115773749731667e-03
1.959518752029051382e-03
2.932313016490494060e-03
4.357839695195683642e-03
5.846052400493157754e-03
7.580365802762274556e-03
9.124299420582560743e-03
1.368412742869605687e-02
1.917495901688237234e-02
2.615864671973829395e-02
3.726800365397505560e-02
5.170204170206896266e-02
6.797022645404295071e-02
8.438003519200831803e-02
1.015583281818549233e-01
1.172228697148276488e-01
1.256413709151500968e-01
1.260917816247060230e-01
1.162361452222337860e-01
9.779484488186716840e-02
7.058910934260358150e-02
3.915554956566736494e-02
7.403916246417534784e-03
-2.119948551529738864e-02
-4.310244754613976742e-02
-5.758291968800968025e-02
-6.490557627538227903e-02
-6.687902526056876962e-02
-6.542563812559810954e-02
-6.104922478787216944e-02
-6.253279408379150417e-02
-6.916822608338679679e-02
-8.461452737564802151e-02
-9.980311944749535591e-02
-9.505755506430169088e-02
-4.407756351530683903e-02
8.945063823155327554e-02
2.679920504780895496e-01
4.826197186972175923e-01
7.019488389104540094e-01
8.815721655418125025e-01
9.681972891725892927e-01
9.060382895487023580e-01
7.665177680009482852e-01
5.763051462855679485e-01
3.712939788859994095e-01
1.806982758970247516e-01
3.187700536733763246e-02
-4.715614393220867590e-02
-9.003106441382946468e-02
-1.093662210592454553e-01
-1.161688157964092111e-01
-1.149081301505798652e-01
-1.076783417507481411e-01
-9.549171384107028870e-02
-8.063048213030139799e-02
-6.535366528029584732e-02
-5.384265343496117545e-02
-4.552862894561896662e-02
-3.837777850519451944e-02
-3.256190826062520249e-02
-2.647672027219960186e-02
-2.042635785409676816e-02
-1.007619835298740989e-02
2.744254936637375956e-03
1.937694732469407571e-02
3.698243397721553971e-02
5.745290421528108371e-02
7.900064542879170482e-02
1.022385876554903483e-01
1.267209635952025182e-01
1.509827775895079272e-01
1.766074322359378057e-01
2.007903082708359099e-01
2.258949010670527890e-01
2.463746581238721312e-01
2.633672147386427742e-01
2.734503782005803796e-01
2.753356024076028530e-01
2.672560700917914756e-01
2.476190918368767480e-01
2.183052484404961469e-01
1.783881797319654405e-01
1.341039845044554035e-01
8.701517001330077994e-02
4.280062592644424263e-02
7.336586764082717212e-04
-3.411512869723854618e-02
-6.090760080195797843e-02
-8.052368371468042463e-02
-9.485092334710855388e-02
-1.052103696669784844e-01
-1.085025469152009203e-01
-1.090667211544977255e-01
-1.073997371881896395e-01
-1.054402184311405977e-01
-1.001583402649149218e-01
-9.461178776420971215e-02
-9.018661862802231088e-02
-8.646028260306236335e-02
-8.263179157180677858e-02
-7.870114553426318937e-02
-7.568989455334225458e-02
-7.285044971937044977e-02
-6.923323381476390037e-02
-6.559280086327666515e-02
-6.114673638489324936e-02
-5.731824535364152262e-02
-5.448344392904282130e-02
-5.297201417686481228e-02
-5.244498721258600282e-02
-5.228014617970933725e-02
-5.334813033639607821e-02
-5.358494421462137169e-02
-5.235676243443047190e-02
-4.990272057874151068e-02
-4.635051240541156192e-02
-4.324407153226796779e-02
-3.949916186979658683e-02
-3.733765480485240484e-02
-3.535724070560349042e-02
-3.406405119413982024e-02
-3.421960540826544939e-02
-3.433569064269128418e-02
-3.359042343769807343e-02
-3.282890429988957748e-02
-3.136623034616512623e-02
-2.964816887671498091e-02
-2.530425940462334433e-02
-2.082801276529388027e-02
-1.637033976346816133e-02
-1.120686853635732144e-02
-7.701094456796349352e-03
-4.179068444420080790e-03
-3.008929281440413540e-03
-1.534646804277576149e-03
-9.170733571491512023e-04
6.732943075060883909e-05
4.550541137224242564e-04
1.207286432777123723e-03
1.729669987679075763e-03
2.711751070890383933e-03
1.625193276696068872e-03
1.541611907908549363e-03
1.743600215804318523e-03
3.310750880505177341e-03
4.543576070073013923e-03
5.827478762782898128e-03
8.813190992130936693e-03
1.068680667570727667e-02
1.216573256225087288e-02
1.175246912770337195e-02
1.228181779667067430e-02
1.226092245447132738e-02
1.082610895700941885e-02
9.883496853495182810e-03
1.041516722715092776e-02
1.087486475546084984e-02
1.189641481837967578e-02
1.224931393102086756e-02
1.586420813093902815e-02
1.879652115244883834e-02
2.261804706963911268e-02
2.771883227016179105e-02
3.361828388351534996e-02
4.412167589406255919e-02
5.753648558393073542e-02
7.462887550030078421e-02
9.401743135355232484e-02
1.147920449058050379e-01
1.351975074125979503e-01
1.497987081982605773e-01
1.528354979307545158e-01
1.464275929906276585e-01
1.285040327957895911e-01
1.025705914257931117e-01
6.834169920396644671e-02
3.263620280028142057e-02
3.104119163190323903e-03
-2.162203576881181061e-02
-3.722156957051084292e-02
-4.779229101702964916e-02
-4.885331005965101031e-02
-4.661054333061093874e-02
-4.190444792712100242e-02
-3.919501855570235033e-02
-4.365501326221541550e-02
-5.166025102799625540e-02
-6.584122326505199851e-02
-7.150153929549775411e-02
-4.679163629631742649e-02
3.561262821085660335e-02
1.746014793849524904e-01
3.409330466749272981e-01
5.320789936750660587e-01
7.087932243317917047e-01
8.228794710175666438e-01
8.282774344182107784e-01
7.395697416818908243e-01
6.060136794787663872e-01
4.363992217593198331e-01
2.653429854283411160e-01
1.232267980389034762e-01
3.149392409352797656e-02
-1.719918833734588801e-02
-4.553327235520082672e-02
-5.682604395982392836e-02
-5.955172526406875971e-02
-5.674710600041982939e-02
-4.900422086444086722e-02
-3.838242191477877346e-02
-2.563626317518875181e-02
-1.490998751454639636e-02
-6.259315845383226634e-03
-1.971127285814402996e-03
2.038456711136003938e-03
4.826824041965744640e-03
9.026787823369089581e-03
1.642373896077327367e-02
2.832711889845570749e-02
4.390111394858291216e-02
6.252815066401831712e-02
8.364869821485401702e-02
1.053450285284210780e-01
1.283740173331631707e-01
1.516560719489419840e-01
1.762359594855690548e-01
1.990699250964768630e-01
2.210866506570544898e-01
2.435189613568604361e-01
2.633579279196712752e-01
2.780148496178563300e-01
2.860247307930111615e-01
2.879331720469141542e-01
2.809030502502859461e-01
2.634275790603148315e-01
2.336238559746746102e-01
1.976815456927673575e-01
1.551943498941215360e-01
1.105433253258360227e-01
6.511917309630019246e-02
2.288736481338019338e-02
-1.119990342245131242e-02
-3.922055730736517809e-02
-6.027145371754654563e-02
-7.655821210703103730e-02
-8.516941479649407787e-02
-8.892825468709915360e-02
-8.959690563737267299e-02
-8.895379343867540478e-02
-8.574055414985951029e-02
-8.129913308085702506e-02
-7.769352569969301125e-02
-7.523716213931574970e-02
-7.341926736825868383e-02
-7.100469449227356233e-02
-6.893373391017540430e-02
-6.877817969605269643e-02
-6.615929680748022790e-02
-6.422531680200434245e-02
-5.980943448457112788e-02
-5.747844297737023100e-02
-5.307184747869078678e-02
-4.485997799564454130e-02
-3.960596028568062060e-02
-3.242028427492953113e-02
-2.830854527168332260e-02
-2.159185360799925277e-02
-1.960911780406224270e-02
-2.038224546531981068e-02
-1.928175744299403041e-02
-2.036831523719242684e-02
-1.842737011764752908e-02
-1.872919172714962444e-02
-1.352625152033164017e-02
-6.514703361214332043e-03
-4.388021915389259597e-04
7.956481961894938323e-03
1.246523246686618604e-02
1.927943572746519327e-02
2.152452416119709708e-02
2.289665163206788812e-02
2.290826015551031616e-02
2.199583021294571755e-02
2.199815191763434402e-02
2.109036538444664793e-02
2.191224884415833574e-02
2.218853170208045372e-02
2.331688018066761098e-02
2.547838724561162990e-02
2.785349114189675582e-02
3.112477304792016924e-02
3.337450489102895129e-02
3.760697253807090967e-02
4.177907586321678163e-02
4.688914788249307075e-02
5.462738960909907515e-02
6.587372711995032049e-02
8.158470274669565869e-02
1.007898439295556309e-01
1.214506939520775958e-01
1.425782066169747342e-01
1.579130660841909506e-01
1.648596065120317422e-01
1.595963019833142593e-01
1.425062337716259675e-01
1.158159166731978079e-01
8.411303915240139761e-02
4.688218276840753346e-02
1.439224735822639163e-02
-1.826252908483132556e-02
-3.743980981143672088e-02
-5.465292837160948963e-02
-6.468501433040797777e-02
-6.645183159831888342e-02
-6.521204129468970156e-02
-5.393087821350822653e-02
-5.142343714998502680e-02
-5.133521237182389618e-02
-5.888771772335715110e-02
-7.148296565820168313e-02
-7.203785307874477351e-02
-3.971972381551240605e-02
5.599255196586027522e-02
1.988656150837333769e-01
3.704697737211792852e-01
5.592359734156553408e-01
7.224819951746790370e-01
8.089585297053984991e-01
7.787415431852106051e-01
6.743693089159137344e-01
5.225228571771755037e-01
3.461824209752867310e-01
1.747338165519601305e-01
4.389414883432627562e-02
-3.426836120705512023e-02
-7.765637842482013553e-02
-9.893480189447333151e-02
-1.051128580704405180e-01
-1.034621260369555790e-01
-9.680347699047939236e-02
-8.535979458110985740e-02
-7.071215970167511744e-02
-5.490831588739533003e-02
-4.132170005058252021e-02
-3.102726146199598009e-02
-2.398320943723698112e-02
-1.679289001710889545e-02
-1.115579103355097274e-02
-3.786700352412199731e-03
5.212227020022193805e-03
1.742207197658048046e-02
3.204881151381912957e-02
4.705398891527193261e-02
6.467804920530031976e-02
8.078139292439028007e-02
1.005692819840546121e-01
1.194145589402047097e-01
1.408647885567996250e-01
1.612911464057847077e-01
1.828992519411941908e-01
2.026058813367595524e-01
2.185025933385805197e-01
2.274690168453733508e-01
2.279403228971285944e-01
2.185722444792270736e-01
1.976629720550406866e-01
1.697398297670420220e-01
1.326923880534354172e-01
9.808273626269904677e-02
6.036200018944175294e-02
3.190254411841104976e-02
5.727645460818569893e-03
-1.259060453105991136e-02
-2.588004216775155117e-02
-3.776717017262187087e-02
-4.441188899096790849e-02
-5.174615410178656089e-02
-5.478990894834571967e-02
-5.832586518885916199e-02
-5.990926778638291927e-02
-5.949832605653033318e-02
-5.857196588583894747e-02
-5.794742732464889384e-02
-5.698391987894230876e-02
-5.573252105187057742e-02
-5.282806848661925070e-02
-5.022079412149236394e-02
-4.571900873058703380e-02
-4.118704117873459719e-02
-3.548029105452339682e-02
-3.048630426966928916e-02
-2.531818963317862894e-02
-2.145951644097686753e-02
-1.811626168960836850e-02
-1.555542141825049657e-02
-1.485891001171568172e-02
-1.402541802856505614e-02
-1.500982081646848147e-02
-1.578062677303722003e-02
-1.751029676593328713e-02
-1.883599014304172814e-02
-1.905655208844490855e-02
-1.949767597925367371e-02
-1.887778082743772623e-02
-1.843201352725835906e-02
-1.730366504867173957e-02
-1.577366165898594699e-02
-1.460584420069567339e-02
-1.268579442335017633e-02
-1.121847706024977666e-02
-8.908380895244578587e-03
-6.584354502105902590e-03
-4.004940593240435311e-03
-1.885224212685408579e-03
4.504107038927496350e-04
3.143588142495078348e-03
5.035777463579173274e-03
6.677222678313378575e-03
7.578044097429066477e-03
9.802237188964366826e-03
1.012727584534430826e-02
1.102809726446275958e-02
1.257899599634461699e-02
1.381646459528841110e-02
1.594546779459447491e-02
1.503768126140990653e-02
1.734081231234976470e-02
1.713185889038882151e-02
1.829038952992252318e-02
1.787712609537792791e-02
1.791891677976688302e-02
1.755440914367975558e-02
1.727812628575097278e-02
1.684396750901033524e-02
1.882205990356709824e-02
1.788409120943268427e-02
2.059584228553983792e-02
2.464025185282041688e-02
2.972710682521252992e-02
3.477449281790375574e-02
3.811774756926945840e-02
4.747886087310189407e-02
5.725323761147577128e-02
7.117417892342518815e-02
8.674353056417173635e-02
1.069771869240183915e-01
1.271342270291433152e-01
1.441871479658126121e-01
1.530073040772332860e-01
1.524175910863664607e-01
1.403215096595356037e-01
1.169767690171644586e-01
8.507654659784989748e-02
4.960322066301280780e-02
1.393022812496602474e-02
-1.691361866110055803e-02
-4.162352166028358835e-02
-5.773150878875418085e-02
-6.578782405768109076e-02
-6.777288156630661975e-02
-6.498219253079233482e-02
-6.171555403414259733e-02
-5.827710939055058548e-02
-6.138355026369774620e-02
-7.200070580398564013e-02
-8.788348757767650010e-02
-9.590729898096508887e-02
-7.142260133656533339e-02
1.128348478010715583e-02
1.570470702351010051e-01
3.291364651524332774e-01
5.300103547971790618e-01
7.066642211320052214e-01
8.286419420538223557e-01
8.289693024148908629e-01
7.298534075602456372e-01
5.866576274906746269e-01
4.043782706957288475e-01
2.331525499224937348e-01
8.239265597795333851e-02
-7.775389007405859518e-03
-5.561875752230795861e-02
-8.066298599662775903e-02
-8.763970858542233233e-02
-8.932294448455219138e-02
-8.304041159760534863e-02
-7.142956645066705912e-02
-5.670763702120225347e-02
-3.973829745331997065e-02
-2.746344476548208749e-02
-1.614049099991166081e-02
-1.091433374620979536e-02
-5.235444078262790034e-03
-1.242112014128204977e-03
4.413560606934293154e-03
1.373288322637456621e-02
2.571752282815339963e-02
4.133795197204859911e-02
5.758988479119966919e-02
7.662321982711725599e-02
9.667346151657350839e-02
1.202016168293314757e-01
1.447141749299897251e-01
1.718107903488961807e-01
2.000636147026483846e-01
2.280889119969351508e-01
2.551158762751855047e-01
2.774158498077531343e-01
2.956992742292985366e-01
3.049303720705778820e-01
3.052763060691538466e-01
2.923095853841570779e-01
2.690809299762056961e-01
2.314786008420597618e-01
1.866348747846331424e-01
1.341504185975188612e-01
8.115983078831910669e-02
3.010090127991345288e-02
-1.696469616436033223e-02
-5.398427742170520960e-02
-8.448451191388396675e-02
-1.059533151679866864e-01
-1.211860196289142877e-01
-1.287315598663787697e-01
-1.321700045099772902e-01
-1.322419773553192845e-01
-1.301245826794555915e-01
-1.253558012493780904e-01
-1.201296439956789780e-01
-1.147409674137852137e-01
-1.087300739753897794e-01
-1.037198352577134997e-01
-9.826847264923466163e-02
-9.417995069287329879e-02
-9.079258355242705858e-02
-8.716840253375579550e-02
-8.387622528553606571e-02
-7.908190510388567185e-02
-7.482854211464742833e-02
-6.868298980431879197e-02
-6.222865077042935567e-02
-5.581145901155201011e-02
-4.972627102312623254e-02
-4.421918750212153193e-02
-3.978473154718411425e-02
-3.593070176435623347e-02
-3.302624919910775170e-02
-2.960405648833168077e-02
-2.656494505115304661e-02
-2.335402746702599369e-02
-1.994576498438371120e-02
-1.653982420642680085e-02
-1.267186419547129857e-02
-9.767411630219720309e-03
-7.067269077554874136e-03
-4.715382228154539265e-03
-3.222526113484005476e-03
-1.678592495664481699e-03
-1.351232134596150368e-03
-8.868911969061566390e-04
-1.067984162608506425e-03
-1.112096551689194246e-03
-8.915346062895903971e-04
-1.339623611160682681e-03
-9.913679078962951956e-04
-3.645076420147594148e-04
2.786045566828544945e-04
9.704725538410068032e-04
5.781044614896528816e-04
1.332658485235971215e-03
6.825811724666007094e-04
8.938562991154784271e-04
1.021550003506212521e-04
-7.197285128330106134e-05
1.555542081816561808e-04
1.021550003471652628e-04
5.873912802301390484e-04
8.242051584519739273e-04
1.209608136731571632e-03
2.012917958935352917e-03
3.164483484403650491e-03
2.697820842024953314e-03
1.961840455782909963e-03
-3.412905951602124613e-04
-8.125966469188872308e-04
-3.222526113530737191e-03
-3.751874782500676762e-03
-3.626502729324471673e-03
-9.124299485289190121e-04
1.172460861699594226e-03
3.426836114181927746e-03
5.270269636811577597e-03
5.908738426132294566e-03
7.466602272082519844e-03
6.895462918720471866e-03
8.813190991380536951e-03
9.837062758984055008e-03
1.282741839770830221e-02
1.487051852354161902e-02
1.706220774943886104e-02
1.928407913628287298e-02
2.068406706341846535e-02
2.280842685334754857e-02
2.418519773359864219e-02
2.778616170538231525e-02
3.089260257852911168e-02
3.611643812753975724e-02
4.218073077377264973e-02
4.900886426250267158e-02
5.697927645795348300e-02
6.633806805709470400e-02
7.973430410945454849e-02
9.580050055352953842e-02
1.139910567875398600e-01
1.336907210690400638e-01
1.544072920040846786e-01
1.690433183600740796e-01
1.748499017858888838e-01
1.687020277708684568e-01
1.528772886143890397e-01
1.262078668581537999e-01
9.073686262800534363e-02
5.600416048878115866e-02
2.362566690364890573e-02
-2.553875217571419803e-04
-1.796535088525851379e-02
-2.582199955097850760e-02
-2.531818963358490465e-02
-2.153381099141358015e-02
-1.528146026541629329e-02
-1.100720193398188954e-02
-1.322210820676394429e-02
-2.305220585766695404e-02
-4.105470401191309987e-02
-5.310202964028645084e-02
-3.797148018565402183e-02
3.550118638505054408e-02
1.899433039654729038e-01
3.679716194758619885e-01
5.881829874707130701e-01
7.825212784174676584e-01
9.352824818034516374e-01
9.599296987760402855e-01
8.543408912499951269e-01
7.012012499997904991e-01
4.924962504409002295e-01
2.962193360792836350e-01
1.108312167065027415e-01
-8.448683367338075123e-03
-7.280169392181219667e-02
-1.086441709021153251e-01
-1.233823522644000859e-01
-1.294211061590628820e-01
-1.292539434214947935e-01
-1.233289530565715997e-01
-1.142626962481723546e-01
-1.025543395043188172e-01
-9.060684717755239370e-02
-8.061423019846378213e-02
-7.297814347815015368e-02
-6.495897548424452161e-02
-5.566751332106561340e-02
-4.566096611384625609e-02
-3.293570271644890440e-02
-1.799785475096046111e-02
1.692522711788701888e-03
2.320776005965770328e-02
4.499695856076622175e-02
6.866905956420585322e-02
9.154713756419770310e-02
1.156325020021815447e-01
1.381808979364134160e-01
1.618344253023453749e-01
1.858385300762357417e-01
2.081779725885046783e-01
2.302155934912774038e-01
2.493812656944343342e-01
2.626730250358135232e-01
2.678736435379400760e-01
2.614448432556198409e-01
2.457129722866757127e-01
2.163248343402674190e-01
1.782929898387553558e-01
1.326738144153888355e-01
8.366030673750549096e-02
3.748856559828774027e-02
-6.521668475984583775e-03
-4.238736250317008680e-02
-7.205178330750615368e-02
-9.236437762676109886e-02
-1.049665906756736544e-01
-1.133409794869156551e-01
-1.161525638646320052e-01
-1.161293468177482247e-01
-1.141837582888292901e-01
-1.116484567690419344e-01
-1.090620777461106111e-01
-1.046461954286782292e-01
-1.013215143148196717e-01
-9.855636403087564279e-02
-9.501344267630276730e-02
-9.045129296349795067e-02
-8.725894901688115157e-02
-8.437074838444920399e-02
-8.123876875973209954e-02
-7.691343292514922492e-02
-7.332639918149581881e-02
-6.963721043154844081e-02
-6.350791005404156364e-02
-5.871126816770329965e-02
-5.205494082591811261e-02
-4.738599269744462467e-02
-4.172567666700475325e-02
-3.922984412692104295e-02
-3.900928218152092952e-02
-3.799701893735715763e-02
-3.912304571125839459e-02
-3.903017752372106575e-02
-4.062983205406622139e-02
-3.861923579386869476e-02
-3.587730255681124969e-02
-3.338611342610441762e-02
-3.046773063272474949e-02
-2.655101482330924495e-02
-2.121805915394094424e-02
-1.784694394631133538e-02
-1.467549534189053866e-02
-1.123705069829585880e-02
-8.235086536131959109e-03
-6.556494046382833722e-03
-6.746873830838513893e-03
-6.354505738491022550e-03
-5.706750130416037362e-03
-5.075246455158134544e-03
-4.116382418830769573e-03
-2.505119365046712572e-03
-4.271936688861575362e-04
1.051732217656214984e-03
2.135968307159912330e-03
2.228836494697275863e-03
2.140611716533420434e-03
1.464995652193634788e-03
1.859685449227506783e-03
1.139956995807159734e-03
1.116739948919923163e-03
2.082569099314711663e-03
3.473270207693891255e-03
3.679901924965331070e-03
3.053041659080937224e-03
4.181390137667264847e-03
5.091498375537174131e-03
5.411893622542692829e-03
5.829800466461075928e-03
6.061970935305472687e-03
7.475889090569164466e-03
8.223478000249596562e-03
8.996605661500924750e-03
9.957791402518813978e-03
9.730264343047936165e-03
1.215412403778970418e-02
1.330568956325848227e-02
1.497267352956535742e-02
1.547184003757952168e-02
1.635176611450164103e-02
1.796999428234899790e-02
1.819055622775114442e-02
1.850166465600081023e-02
1.908441253280125996e-02
1.929800936413599705e-02
1.995969520034376887e-02
2.047511364117708677e-02
2.214906272154932437e-02
2.284789583277023473e-02
2.429431785367431457e-02
2.701999915791258866e-02
2.986873081064079713e-02
3.153803648163405748e-02
3.225544323036461103e-02
3.523419034564400504e-02
3.674794180251309689e-02
3.990313847411472437e-02
4.168852937953253929e-02
4.737438416154531734e-02
5.550731568518706832e-02
6.594569996445821813e-02
8.083247042680277716e-02
9.674543436144042441e-02
1.155373121097588857e-01
1.323023416650579709e-01
1.445934462857147440e-01
1.481015420699608731e-01
1.405513584231187774e-01
1.231942941722593415e-01
9.657594991917238525e-02
6.418120440121838355e-02
3.012179662164725033e-02
-1.235146900569336886e-03
-2.563394147149751501e-02
-4.388950543678737243e-02
-5.311131645931396750e-02
-5.785920254719824352e-02
-5.729502830790554613e-02
-5.338759931724599422e-02
-5.211298344328740145e-02
-5.485491668035036988e-02
-6.533044823464032036e-02
-7.810446743049838381e-02
-8.310309762473334916e-02
-5.693516408120950084e-02
3.570781810203405710e-02
1.701275544492556746e-01
3.466374750934003712e-01
5.335138071714748964e-01
7.106645183096317320e-01
8.166224768811376489e-01
8.050441355998337878e-01
7.169400860825076993e-01
5.680491644121700157e-01
3.989570902476214376e-01
2.240816497041444866e-01
8.759559618419617000e-02
1.105131425345206404e-03
-4.690772153181603510e-02
-7.131115951212099735e-02
-8.097177272076676313e-02
-8.086265260041029801e-02
-7.772602956631635696e-02
-6.772180406378341955e-02
-5.573948616669269218e-02
-3.998207644617917528e-02
-2.686908836581301113e-02
-1.677663808511894658e-02
-9.282175350803259853e-03
-2.166150480702843349e-03
4.559828001735689862e-03
1.049874859479164868e-02
1.824395543545999018e-02
2.910721167271967599e-02
4.334390482229589364e-02
5.835836904250523566e-02
7.636551060612524477e-02
9.623001592050790809e-02
1.207100701555282041e-01
