1773
1779
1763
1764
1761
1759
1761
1763
1765
1770
1776
1781
1787
1790
1787
1779
1770
1759
1755
1744
1741
1731
1737
1731
1727
1728
1725
1737
1769
1765
1761
1759
1760
1759
1759
1783
1776
1739
1754
1797
1829
1783
1785
1792
1785
1782
1785
1786
1767
1792
1799
1790
1786
1770
1790
1808
1797
1789
1785
1790
1806
1826
1861
1872
1928
1933
1973
1997
1970
1923
1936
1885
1712
1734
1731
1742
1718
1725
1776
1747
1676
1687
1744
1728
1730
1716
1645
1615
1738
2000
2367
2983
3251
2579
2321
2126
1873
1725
1749
1777
1779
1739
1726
1731
1725
1756
1770
1767
1744
1777
1789
1792
1785
1808
1809
1767
1795
1866
1834
1808
1842
1874
1892
1890
1889
1865
1872
1890
1894
1910
1904
1865
1831
1828
1779
1791
1744
1733
1731
1729
1728
1728
1743
1734
1730
1738
1762
1781
1791
1730
1719
1758
1760
1776
1797
1806
1829
1811
1770
1762
1759
1792
1776
1767
1830
1859
1854
1847
1886
1927
1931
1952
1984
1955
1989
1886
1808
1747
1726
1722
1740
1726
1680
1684
1698
1729
1736
1727
1680
1681
1641
1535
1571
1808
2209
2763
3323
2798
2361
2156
1968
1776
1773
1764
1725
1701
1740
1751
1721
1741
1775
1766
1755
1783
1803
1806
1823
1835
1849
1871
1867
1858
1888
1904
1903
1917
1910
1920
1937
1966
1971
1991
2005
2001
1970
1920
1946
1925
1905
1891
1870
1836
1841
1859
1856
1850
1859
1857
1868
1850
1869
1879
1898
1890
1893
1887
1872
1909
1907
1884
1889
1903
1893
1887
1894
1901
1904
1904
1908
1903
1926
1957
1963
1984
2041
2096
2128
2146
2110
2086
2071
1990
1935
1886
1845
1824
1837
1843
1833
1828
1831
1819
1830
1840
1840
1778
1673
1650
1803
2166
2734
3730
3623
2729
2256
1975
1891
1872
1841
1839
1824
1803
1808
1807
1802
1797
1814
1819
1820
1835
1827
1840
1845
1856
1874
1910
1915
1921
1931
1937
1936
1933
1945
1938
1958
1972
1989
1998
2010
1983
1905
1947
1904
1871
1859
1829
1809
1820
1762
1809
1827
1840
1838
1841
1855
1858
1863
1867
1872
1872
1904
1903
1872
1882
1914
1913
1909
1895
1904
1938
1958
1944
1934
1955
2007
2032
2028
2032
2128
2192
2221
2178
2147
2153
2099
1989
1931
1918
1932
1930
1932
1917
1920
1927
1942
1921
1918
1946
1950
1834
1750
1853
2142
2734
3645
4095
3340
2573
2203
2075
2087
2033
2000
1941
1945
1922
1977
1980
2003
2002
1990
2014
2031
2023
2031
2055
2075
2099
2101
2111
2112
2119
2151
2165
2159
2160
2185
2215
2224
2236
2250
2265
2225
2201
2180
2161
2128
2089
2063
2019
2054
2053
2031
2029
2013
2001
2019
2053
2058
2064
2063
2041
2046
2046
2038
2035
2043
2051
2032
2027
2053
2034
2041
2066
2016
2001
2016
2057
2075
2079
2092
2118
2191
2222
2221
2215
2196
2181
2103
1991
1951
1918
1897
1917
1905
1920
1891
1878
1902
1893
1881
1891
1874
1763
1679
1759
2023
2576
3435
4095
3113
2409
2064
1945
1951
1904
1833
1815
1803
1783
1798
1811
1811
1804
1803
1811
1829
1831
1822
1810
1845
1847
1838
1855
1861
1874
1893
1900
1922
1926
1914
1904
1925
1953
1955
1934
1933
1937
1920
1877
1840
1809
1796
1797
1799
1778
1763
1761
1749
1771
1789
1790
1808
1793
1787
1759
1795
1813
1791
1787
1760
1775
1788
1790
1771
1771
1782
1776
1770
1786
1791
1795
1765
1781
1829
1867
1871
1862
1931
1991
2002
2005
1977
1920
1881
1827
1753
1712
1702
1680
1719
1703
1686
1695
1700
1711
1712
1712
1671
1520
1471
1575
1859
2496
3312
3802
2874
2197
1878
1782
1776
1728
1682
1665
1650
1648
1667
1677
1655
1669
1683
1654
1663
1705
1714
1689
1705
1723
1765
1769
1745
1751
1778
1808
1802
1797
1796
1799
1803
1812
1847
1847
1843
1808
1815
1831
1797
1737
1714
1733
1717
1721
1735
1741
1725
1706
1743
1776
1797
1763
1759
1761
1767
1757
1753
1776
1813
1763
1762
1754
1776
1802
1799
1815
1837
1789
1759
1827
1872
1809
1803
1902
1943
1949
1990
2000
1995
2021
1962
1860
1813
1782
1750
1759
1782
1746
1753
1817
1778
1745
1766
1770
1786
1723
1639
1671
1808
2189
2769
3450
3023
2412
2256
2106
1822
1787
1844
1801
1779
1798
1770
1731
1776
1822
1817
1840
1831
1823
1779
1866
1905
1837
1807
1808
1867
1904
1934
1933
1839
1904
1963
1945
1879
1857
1953
1951
1858
1854
1903
1938
1907
1805
1813
1843
1840
1808
1833
1831
1808
1778
1808
1818
1843
1871
1852
1865
1872
1842
1830
1843
1901
1927
1920
1883
1899
1913
1929
1904
1922
2000
2070
2064
2087
2133
2105
2077
2032
1936
1888
1840
1842
1817
1826
1860
1855
1865
1837
1827
1843
1837
1839
1737
1632
1758
2026
2497
3178
3752
2945
2473
2220
1970
1874
1882
1817
1802
1817
1783
1765
1782
1805
1792
1837
1814
1807
1833
1836
1837
1795
1835
1830
1843
1855
1862
1874
1872
1865
1858
1877
1890
1852
1856
1871
1915
1954
1986
1930
1853
1857
1873
1845
1808
1797
1835
1840
1828
1827
1851
1850
1840
1833
1831
1831
1832
1840
1799
1791
1834
1874
1851
1819
1835
1838
1846
1840
1877
1886
1897
1965
1997
2017
2067
2064
2031
1968
1904
1850
1783
1776
1744
1713
1696
1743
1761
1712
1707
1734
1741
1725
1662
1547
1524
1664
2026
2640
3470
3887
2678
2171
1919
1830
1789
1778
1744
1680
1677
1657
1686
1682
1680
1682
1682
1729
1723
1707
1744
1750
1748
1748
1743
1739
1762
1783
1771
1777
1805
1814
1814
1817
1823
1840
1851
1863
1865
1872
1897
1817
1773
1773
1778
1750
1726
1727
1776
1799
1785
1777
1776
1783
1790
1788
1795
1771
1771
1808
1805
1785
1823
1847
1819
1812
1826
1825
1811
1846
1879
1875
1902
1918
1984
2047
2057
2067
2034
2007
1973
1842
1828
1765
1791
1758
1758
1698
1723
1779
1805
1803
1811
1795
1744
1635
1583
1711
2054
2576
3400
3953
2813
2278
2016
1906
1875
1850
1818
1776
1770
1787
1807
1779
1802
1795
1793
1809
1840
1865
1855
1867
1872
1883
1885
1874
1918
1939
1961
1950
1943
1975
1983
1983
1979
1993
2026
2035
2017
2022
2013
2003
2010
1982
1951
1958
1955
1933
1950
1965
1939
1919
1959
1984
1973
1975
1984
1983
1968
1982
1971
1993
1997
1986
1965
1975
2017
2011
2035
2058
2081
2095
2096
2160
2202
2226
2255
2228
2199
2154
2073
1993
1929
1919
1924
1921
1905
1889
1904
1916
1914
1887
1899
1910
1775
1684
1796
2104
2909
4095
4095
3151
2347
2067
2006
1968
1890
1879
1865
1857
1840
1822
1824
1841
1870
1859
1876
1863
1856
1869
1865
1867
1886
1914
1931
1913
1863
1881
1883
1895
1935
1951
1968
1955
1928
1940
1954
1949
1962
1936
1904
1881
1863
1846
1825
1808
1830
1843
1850
1828
1807
1822
1830
1814
1849
1878
1856
1830
1835
1840
1830
1822
1807
1798
1783
1806
1835
1831
1825
1842
1856
1855
1869
1882
1936
1984
2000
1995
1965
1946
1915
1834
1755
1749
1735
1725
1713
1742
1751
1744
1697
1682
1689
1744
1682
1622
1649
1791
2176
2630
3154
2925
2321
2078
1883
1770
1745
1737
1708
1679
1683
1712
1712
1700
1704
1707
1712
1713
1739
1746
1728
1718
1740
1751
1775
1791
1785
1775
1773
1771
1798
1818
1803
1791
1808
1838
1840
1849
1878
1857
1829
1808
1823
1817
1798
1796
1788
1750
1771
1804
1789
1765
1756
1780
1808
1787
1771
1777
1791
1783
1780
1801
1791
1776
1785
1801
1810
1827
1833
1867
1930
1950
1941
1953
1964
1934
1891
1821
1773
1725
1717
1719
1728
1729
1717
1727
1734
1738
1717
1717
1690
1616
1612
1742
2093
2531
3112
2962
2356
2128
1949
1783
1742
1753
1727
1723
1706
1679
1669
1702
1723
1709
1715
1735
1781
1779
1740
1730
1770
1777
1758
1758
1776
1782
1798
1806
1843
1794
1792
1782
1808
1835
1835
1835
1851
1847
1856
1856
1822
1809
1801
1797
1813
1808
1809
1809
1807
1824
1837
1830
1823
1811
1802
1806
1819
1826
1841
1840
1835
1826
1838
1840
1836
1842
1854
1881
1892
1918
1983
2023
2032
2033
1977
1937
1943
1873
1807
1783
1783
1781
1785
1778
1793
1800
1792
1804
1815
1807
1722
1643
1646
1807
2170
2687
3351
2939
2437
2211
1974
1847
1821
1814
1792
1796
1792
1791
1776
1779
1807
1803
1827
1840
1842
1847
1862
1856
1856
1870
1872
1865
1874
1897
1890
1907
1925
1935
1919
1920
1935
1944
1954
1951
1936
1917
1904
1897
1867
1859
1837
1841
1858
1853
1839
1823
1839
1861
1857
1847
1871
1872
1860
1867
1877
1872
1871
1861
1861
1861
1860
1872
1879
1866
1895
1919
1905
1904
1968
2025
2064
2064
2039
2011
1990
1943
1857
1839
1820
1791
1762
1789
1818
1766
1749
1790
1808
1795
1776
1745
1674
1648
1839
2237
2794
3315
2762
2320
2075
1890
1805
1823
1792
1751
1757
1775
1782
1780
1776
1775
1775
1787
1798
1798
1805
1819
1840
1844
1840
1855
1872
1885
1879
1883
1885
1898
1915
1927
1927
1919
1921
1936
1955
1934
1890
1867
1856
1839
1821
1798
1790
1797
1823
1824
1791
1794
1815
1839
1849
1841
1826
1835
1874
1861
1846
1842
1845
1872
1883
1887
1843
1852
1878
1897
1919
1927
1929
1942
2012
2059
2077
2068
2032
2002
1977
1932
1861
1835
1818
1785
1803
1833
1808
1791
1808
1828
1823
1824
1776
1684
1663
1773
2134
2621
3174
3078
2438
2186
1997
1856
1839
1840
1817
1789
1795
1798
1786
1776
1806
1811
1831
1819
1845
1862
1840
1851
1872
1904
1893
1886
1913
1936
1955
1936
1940
1947
1942
1968
1986
1975
1962
1954
1942
1918
1893
1875
1858
1845
1802
1798
1802
1808
1797
1791
1805
1791
1797
1817
1841
1847
1827
1818
1815
1842
1855
1849
1840
1837
1845
1856
1847
1836
1848
1843
1844
1856
1854
1842
1842
1856
1845
1861
1869
1859
1847
1852
1861
1873
1872
1873
1890
1907
1914
1930
1937
1968
2019
2059
2058
2027
1998
1963
1904
1875
1847
1823
1829
1838
1818
1824
1835
1814
1835
1865
1834
1792
1723
1680
1775
2021
2470
3097
3337
2687
2288
2071
1883
1836
1836
1837
1823
1809
1810
1806
1803
1802
1834
1849
1853
1840
1856
1872
1886
1877
1895
1904
1914
1919
1939
1959
1963
1983
1994
2006
2000
2013
2079
2019
2018
1984
1962
1929
1868
1878
1858
1837
1815
1818
1808
1797
1803
1792
1798
1821
1830
1850
1871
1859
1826
1818
1842
1856
1842
1846
1847
1840
1872
1872
1862
1856
1853
1854
1865
1858
1867
1853
1863
1872
1872
1871
1877
1872
1883
1877
1868
1866
1867
1866
1869
1873
1877
1872
1882
1888
1889
1879
1887
1872
1891
1904
1893
1890
1888
1881
1908
1908
1905
1895
1878
1894
1925
1927
1906
1904
1895
1904
1911
1897
1911
1902
1900
1910
1913
1904
1905
1915
1919
1897
1899
1901
1920
1916
1909
1907
1914
1878
1898
1930
1901
1879
1889
1902
1911
1914
1909
1913
1894
1872
1875
1893
1885
1901
1881
1863
1879
1883
1889
1895
1874
1871
1875
1875
1872
1881
1877
1859
1872
1867
1867
1863
1866
1858
1878
1898
1874
1869
1883
1900
1933
1949
1967
1968
1931
1936
1924
1922
1893
1853
1851
1848
1829
1840
1834
1840
1833
1760
1696
1725
1902
2272
2803
3344
2897
2415
2128
1935
1840
1849
1829
1797
1785
1783
1780
1776
1782
1802
1809
1808
1823
1835
1833
1838
1855
1860
1885
1904
1890
1919
1923
1938
1965
1981
1978
1991
2005
2005
2003
2006
2020
2017
1986
1949
1917
1891
1872
1871
1866
1856
1820
1784
1792
1792
1795
1814
1817
1826
1824
1817
1818
1821
1838
1856
1843
1840
1856
1854
1863
1859
1850
1837
1873
1837
1872
1863
1870
1878
1871
1863
1876
1895
1910
1897
1876
1878
1874
1893
1888
1878
1872
1872
1879
1881
1883
1872
1879
1889
1888
1885
1888
1889
1883
1882
1884
1899
1909
1911
1899
1893
1900
1901
1855
1916
1904
1898
1910
1956
1904
1914
1914
1916
1915
1907
1906
1917
1919
1915
1902
1893
1903
1904
1913
1921
1920
1919
1917
1915
1934
1930
1906
1911
1928
1924
1920
1920
1921
1915
1920
1937
1958
1978
1978
1973
1985
2009
2003
2000
1984
1938
1919
1899
1872
1863
1853
1847
1856
1863
1859
1866
1872
1863
1791
1728
1743
1872
2316
2896
3549
3214
2445
2114
1918
1901
1889
1853
1837
1815
1799
1795
1808
1812
1825
1837
1831
1840
1851
1849
1856
1878
1878
1878
1891
1902
1923
1941
1968
1974
1992
2012
2031
2036
2027
2033
2032
2031
2000
1962
1920
1886
1853
1825
1791
1758
1746
1731
1744
1754
1763
1759
1750
1756
1771
1779
1792
1788
1792
1803
1811
1810
1804
1808
1824
1833
1826
1805
1794
1828
1837
1829
1830
1837
1843
1851
1834
1833
1822
1827
1835
1829
1840
1843
1840
1846
1835
1840
1853
1847
1845
1852
1859
1860
1870
1875
1871
1867
1851
1845
1850
1871
1867
1866
1886
1890
1885
1883
1882
1872
1865
1883
1886
1882
1892
1894
1898
1890
1899
1910
1885
1869
1868
1879
1887
1895
1873
1855
1858
1886
1904
1869
1871
1885
1873
1859
1866
1874
1873
1851
1856
1883
1875
1853
1872
1895
1861
1834
1849
1840
1863
1873
1876
1873
1901
1936
1917
1872
1879
1951
1968
1957
1940
1916
1877
1840
1827
1815
1810
1807
1792
1805
1804
1787
1787
1799
1826
1787
1702
1673
1755
1983
2516
3138
3257
2678
2286
2064
1894
1845
1834
1821
1801
1781
1776
1788
1793
1787
1795
1799
1805
1811
1818
1835
1835
1837
1859
1887
1909
1904
1910
1936
1962
1984
1987
2003
2022
2031
2037
2077
2074
2054
2063
1925
1905
1867
1837
1809
1778
1764
1777
1773
1772
1771
1758
1750
1782
1793
1763
1776
1780
1775
1792
1792
1805
1797
1835
1836
1840
1850
1847
1840
1797
1826
1806
1826
1852
1861
1845
1873
1853
1856
1855
1849
1858
1859
1862
1878
1850
1847
1846
1856
1857
1855
1868
1872
1873
1869
1888
1881
1867
1858
1867
1873
1873
1867
1867
1872
1885
1872
1894
1898
1891
1885
1873
1883
1885
1872
1888
1885
1892
1895
1895
1891
1882
1897
1902
1894
1902
1893
1906
1904
1892
1890
1898
1903
1895
1904
1914
1930
1953
1956
1969
2022
2067
2072
2059
2024
1970
1936
1911
1861
1858
1861
1854
1840
1835
1840
1845
1840
1828
1845
1792
1715
1711
1830
2215
2742
3411
3383
2547
2149
1927
1867
1884
1850
1826
1801
1807
1796
1796
1809
1814
1813
1823
1833
1830
1838
1850
1872
1895
1902
1893
1904
1923
1951
1959
1980
2003
2022
2036
2066
2076
2079
2083
2078
2042
2003
1962
1918
1865
1833
1799
1786
1792
1767
1744
1754
1782
1776
1778
1787
1789
1792
1809
1813
1821
1827
1833
1840
1830
1819
1828
1843
1841
1840
1840
1837
1843
1859
1858
1848
1850
1861
1865
1867
1862
1855
1858
1867
1876
1873
1857
1861
1857
1870
1877
1859
1872
1894
1888
1881
1895
1892
1890
1893
1891
1885
1889
1886
1882
1890
1891
1882
1874
1892
1891
1891
1879
1877
1882
1898
1904
1895
1898
1881
1874
1889
1905
1907
1897
1904
1904
1885
1903
1917
1913
1901
1907
1919
1911
1891
1885
1905
1962
1962
1940
1964
2000
2036
2064
2058
2016
1984
1945
1901
1879
1876
1846
1845
1835
1830
1840
1847
1837
1837
1856
1812
1714
1667
1779
2097
2624
3293
3248
2619
2269
2026
1857
1835
1811
1806
1802
1782
1774
1779
1793
1789
1790
1798
1807
1824
1840
1839
1840
1855
1873
1885
1906
1925
1940
1952
1954
2000
2033
2065
2062
2070
2087
2067
2082
2061
2025
1969
1920
1883
1846
1823
1779
1762
1763
1765
1766
1776
1787
1779
1806
1818
1823
1814
1821
1819
1827
1853
1870
1867
1870
1869
1886
1883
1893
1899
1887
1904
1917
1920
1931
1927
1921
1934
1947
1968
1936
1941
1953
1947
1966
1967
1955
1955
1979
1981
1983
1980
1968
1989
2000
2007
2001
1989
2000
2007
2014
2014
2006
2009
2023
2032
2032
2015
2029
2057
2063
2038
2053
2073
2064
2039
2042
2065
2062
2075
2080
2072
2062
2064
2080
2086
2066
2062
2064
2074
2070
2063
2062
2062
2055
2083
2114
2119
2110
2123
2153
2192
2229
2198
2151
2125
2079
2000
2032
1987
1987
2006
2006
1987
1984
1973
1962
1955
1969
1943
1862
1825
1925
2230
2752
3431
3376
2733
2362
2113
1963
1936
1932
1909
1892
1872
1856
1858
1867
1879
1887
1883
1877
1888
1906
1902
1898
1936
1936
1936
1954
1977
1991
2014
2020
2039
2073
2098
2118
2128
2122
2127
2137
2099
2058
2011
1961
1900
1857
1827
1791
1769
1764
1767
1757
1744
1754
1776
1762
1760
1776
1789
1776
1770
1755
1767
1776
1771
1794
1798
1808
1809
1808
1803
1793
1803
1799
1786
1782
1795
1792
1806
1819
1811
1787
1786
1783
1808
1810
1792
1808
1823
1819
1833
1798
1776
1776
1797
1808
1829
1815
1798
1792
1817
1834
1813
1782
1806
1829
1792
1787
1815
1811
1785
1786
1788
1785
1797
1808
1778
1786
1798
1765
1799
1839
1850
1849
1849
1840
1859
1914
1918
1906
1885
1837
1796
1791
1747
1728
1706
1718
1723
1723
1731
1744
1719
1715
1707
1651
1572
1589
1709
2047
2527
3174
2939
2449
2175
1949
1769
1722
1733
1725
1728
1676
1682
1703
1729
1712
1755
1787
1803
1789
1757
1795
1805
1845
1872
1861
1918
1927
1920
1921
1989
2011
2029
2035
2054
2071
2077
2057
2016
2021
2000
1983
1923
1874
1861
1837
1747
1766
1749
1751
1754
1766
1744
1760
1779
1776
1789
1808
1808
1805
1779
1809
1801
1803
1819
1830
1833
1830
1810
1847
1855
1840
1879
1843
1802
1845
1882
1855
1773
1805
1839
1891
1872
1865
1841
1865
1861
1869
1875
1868
1873
1863
1863
1866
1866
1872
1899
1893
1866
1854
1855
1875
1874
1870
1851
1843
1872
1873
1903
1891
1902
1904
1920
1958
1989
2015
2003
1971
1921
1892
1874
1872
1843
1807
1786
1776
1765
1777
1793
1808
1794
1793
1792
1729
1665
1676
1792
2141
2661
3280
3152
2457
2118
1883
1811
1808
1782
1762
1750
1743
1745
1744
1737
1767
1758
1758
1778
1791
1801
1813
1853
1871
1859
1856
1888
1925
1931
1923
1942
2003
2027
2038
2055
2085
2092
2080
2094
2095
2069
2005
1951
1901
1871
1841
1819
1809
1792
1798
1808
1828
1822
1811
1831
1847
1855
1872
1867
1881
1903
1905
1878
1904
1920
1911
1921
1940
1931
1936
1951
1970
1987
1978
1966
1967
1983
2001
2003
2013
1999
2000
2003
2033
2034
2042
2064
2069
2056
2065
2064
2066
2077
2075
2069
2086
2064
2064
2078
2096
2099
2111
2130
2151
2162
2177
2193
2234
2278
2283
2243
2210
2186
2128
2087
2091
2088
2081
2087
2089
2074
2075
2079
2070
2071
2087
2055
1964
1946
2026
2319
2944
3632
3381
2803
2470
2246
2110
2077
2074
2064
2034
2007
2007
2023
2035
2079
2081
2058
2068
2074
2085
2096
2086
2080
2102
2117
2129
2151
2173
2195
2205
2213
2224
2235
2256
2282
2286
2271
2240
2213
2155
2112
2062
2018
1979
1961
1927
1910
1892
1892
1895
1897
1893
1872
1879
1885
1877
1879
1886
1897
1895
1901
1893
1893
1901
1889
1882
1897
1904
1901
1890
1871
1873
1879
1883
1870
1857
1862
1855
1859
1863
1843
1834
1843
1854
1840
1845
1854
1843
1834
1831
1833
1834
1853
1846
1838
1843
1867
1886
1873
1902
1946
1969
1970
1943
1911
1887
1842
1783
1774
1745
1714
1742
1744
1730
1730
1758
1765
1744
1725
1679
1610
1567
1584
1807
2267
2861
3152
2546
2201
1969
1751
1663
1671
1652
1639
1645
1626
1614
1619
1621
1618
1619
1641
1648
1663
1653
1685
1711
1715
1721
1742
1751
1776
1788
1802
1840
1873
1886
1885
1910
1932
1942
1931
1911
1875
1823
1786
1728
1700
1664
1647
1635
1616
1620
1622
1634
1648
1645
1631
1634
1642
1662
1669
1664
1674
1666
1680
1675
1703
1701
1695
1699
1695
1717
1730
1728
1733
1744
1771
1729
1713
1744
1741
1715
1728
1750
1740
1742
1754
1760
1757
1761
1785
1776
1758
1760
1771
1771
1783
1778
1791
1824
1831
1826
1859
1914
1954
1971
1955
1901
1856
1812
1775
1744
1740
1734
1744
1746
1738
1734
1727
1721
1745
1757
1729
1643
1572
1619
1827
2251
2848
3420
2854
2339
2032
1805
1754
1749
1727
1711
1702
1697
1701
1712
1711
1713
1728
1729
1744
1755
1771
1762
1776
1790
1806
1833
1843
1847
1872
1899
1919
1938
1955
1969
1983
1995
2009
2023
2014
1966
1921
1878
1848
1804
1769
1744
1731
1721
1707
1690
1690
1695
1710
1719
1731
1728
1724
1729
1746
1751
1761
1759
1747
1759
1770
1776
1774
1776
1775
1786
1794
1805
1794
1799
1799
1786
1806
1790
1783
1796
1823
1798
1811
1829
1814
1821
1833
1837
1823
1823
1831
1850
1851
1868
1856
1859
1861
1863
1859
1872
1881
1917
1936
1949
1936
1978
2056
2077
2077
2058
2002
1973
1936
1875
1883
1878
1882
1868
1900
1904
1889
1901
1906
1903
1903
1885
1803
1743
1767
2007
2505
3216
3742
2938
2423
2141
1984
1959
1933
1907
1904
1901
1896
1897
1899
1911
1923
1928
1933
1938
1957
1968
1956
1983
1986
2003
2016
2058
2065
2065
2097
2131
2147
2130
2150
2192
2227
2234
2213
2174
2137
2085
2022
1968
1904
1854
1830
1825
1808
1807
1811
1819
1824
1808
1792
1794
1809
1804
1823
1831
1833
1843
1856
1853
1855
1855
1854
1859
1863
1844
1853
1863
1869
1856
1856
1861
1872
1863
1870
1872
1867
1872
1873
1872
1874
1891
1893
1881
1885
1897
1891
1887
1889
1874
1887
1891
1897
1904
1892
1891
1905
1898
1902
1916
1913
1919
1930
1946
1945
1968
2015
2063
2061
2017
1983
1961
1930
1901
1869
1851
1857
1838
1861
1863
1865
1854
1859
1870
1872
1987
1787
1707
1703
1840
2211
2946
3408
2896
2471
2160
1955
1894
1874
1843
1824
1808
1799
1803
1803
1808
1808
1818
1840
1835
1853
1849
1859
1855
1861
1882
1901
1922
1941
1965
1968
1998
2017
2047
2078
2094
2105
2112
2111
2079
2035
1983
1924
1890
1838
1792
1776
1765
1738
1727
1739
1746
1751
1763
1749
1744
1759
1779
1783
1776
1783
1779
1790
1790
1791
1799
1806
1819
1809
1820
1815
1808
1837
1810
1813
1817
1813
1811
1808
1810
1819
1808
1808
1809
1818
1834
1837
1825
1826
1824
1839
1842
1840
1837
1832
1840
1840
1849
1878
1885
1877
1907
1968
1999
2009
1968
1938
1893
1857
1806
1783
1799
1801
1775
1776
1762
1757
1775
1786
1790
1794
1773
1711
1643
1631
1769
2128
2703
3277
2901
2434
2147
1921
1788
1776
1759
1755
1757
1734
1727
1733
1743
1745
1766
1774
1763
1782
1795
1793
1803
1830
1835
1843
1874
1896
1899
1924
1942
1957
1994
2032
2032
2046
2064
2057
2032
2002
1952
1898
1839
1806
1791
1763
1728
1723
1722
1735
1729
1726
1712
1712
1728
1755
1755
1753
1745
1745
1744
1763
1767
1771
1773
1774
1781
1776
1773
1772
1781
1792
1791
1787
1786
1775
1779
1787
1802
1805
1808
1797
1777
1783
1791
1794
1795
1809
1797
1791
1800
1802
1798
1827
1845
1845
1851
1872
1930
1962
1978
1987
1936
1902
1865
1810
1779
1758
1765
1776
1780
1772
1734
1754
1770
1787
1756
1758
1751
1691
1622
1655
1881
2301
2859
3265
2672
2261
2031
1834
1725
1711
1703
1706
1712
1686
1650
1665
1683
1683
1680
1686
1721
1739
1733
1744
1744
1757
1773
1785
1791
1790
1808
1818
1872
1913
1915
1925
1946
1957
1968
1969
1940
1911
1885
1846
1803
1765
1722
1695
1697
1678
1664
1690
1703
1709
1703
1722
1712
1723
1738
1756
1753
1760
1761
1769
1792
1794
1806
1801
1808
1807
1810
1827
1837
1832
1841
1837
1837
1850
1859
1847
1850
1857
1861
1854
1875
1869
1862
1877
1923
1936
1937
1948
1989
2046
2090
2081
2058
2026
1999
1915
1873
1837
1823
1837
1824
1808
1808
1814
1809
1808
1816
1808
1822
1798
1712
1687
1818
2128
2669
3396
3501
2722
2241
1959
1838
1843
1827
1794
1779
1790
1792
1787
1793
1788
1789
1809
1839
1831
1823
1839
1857
1866
1873
1890
1908
1919
1942
1959
1990
2013
2026
2054
2070
2083
2098
2090
2085
2069
2033
1971
1904
1882
1857
1830
1808
1792
1783
1785
1803
1809
1824
1826
1813
1808
1813
1829
1843
1861
1852
1854
1872
1873
1883
1878
1856
1854
1859
1873
1897
1894
1892
1877
1872
1893
1899
1881
1883
1888
1883
1865
1873
1851
1856
1889
1856
1877
1878
1872
1859
1858
1860
1861
1853
1853
1845
1855
1847
1865
1878
1870
1856
1858
1873
1861
1861
1863
1875
1874
1875
1868
1854
1849
1873
1872
1865
1856
1851
1863
1869
1858
1876
1899
1913
1904
1942
1975
2009
2034
2015
1970
1939
1895
1845
1835
1839
1832
1821
1810
1823
1829
1838
1835
1831
1840
1840
1762
1706
1722
1886
2289
2880
3493
3003
2495
2190
1966
1857
1855
1827
1819
1814
1805
1799
1805
1814
1815
1829
1832
1829
1840
1854
1862
1863
1882
1901
1904
1916
1922
1942
1970
1986
1995
2006
2031
2061
2079
2078
2080
2080
2064
2022
1998
1952
1904
1862
1840
1814
1797
1795
1801
1795
1790
1793
1806
1808
1808
1809
1815
1835
1824
1837
1836
1845
1852
1866
1872
1865
1865
1872
1877
1863
1874
1872
1870
1894
1879
1865
1867
1885
1883
1887
1875
1859
1859
1879
1886
1879
1886
1871
1863
1895
1895
1888
1904
1903
1894
1917
1920
1913
1904
1963
1915
1903
1900
1887
1908
1915
1904
1878
1904
1917
1904
1919
1920
1925
1917
1917
1909
1905
1906
1902
1898
1889
1901
1898
1917
1963
1959
1955
1971
2029
2069
2074
2059
2021
2003
1936
1845
1871
1872
1869
1859
1846
1847
1860
1856
1840
1842
1861
1854
1783
1712
1703
1802
2162
2672
3309
3346
2591
2172
2000
1866
1821
1822
1819
1798
1783
1780
1792
1806
1808
1792
1776
1783
1803
1835
1838
1802
1790
1818
1841
1858
1856
1872
1915
1927
1936
1943
1965
2001
2000
2013
2031
2053
2000
1935
1904
1900
1841
1804
1744
1732
1726
1712
1709
1729
1764
1766
1715
1726
1761
1773
1775
1759
1773
1791
1808
1792
1808
1787
1795
1790
1775
1762
1778
1827
1841
1843
1838
1825
1813
1808
1783
1790
1798
1808
1808
1799
1808
1806
1809
1792
1810
1825
1839
1821
1837
1821
1808
1802
1840
1840
1815
1823
1841
1856
1858
1872
1853
1872
1842
1858
1868
1866
1846
1818
1802
1827
1924
1968
1904
2255
2102
1930
2150
2213
2597
3094
2225
1694
2279
2595
2032
1615
1511
1676
1788
1831
1875
1866
1874
1865
1901
1933
1856
1850
1753
1723
1798
1963
2320
2955
3575
3012
2534
2315
1946
2138
1936
1842
2320
2401
2202
2501
1838
1261
1527
1968
2208
2192
1817
1793
1884
1878
1804
1780
1843
1887
1945
1959
2038
2039
2019
1980
2052
2150
2453
2609
2367
2135
2612
3137
2118
1424
1885
1925
1360
1290
1554
1704
1748
1850
2481
2221
1603
1421
1483
1729
1796
1728
1604
1678
2166
2128
1683
1535
1584
1691
1903
1904
1625
1616
1629
1754
1705
1710
1759
1841
1979
1938
1869
1823
1825
1776
1762
1776
1815
1776
1731
1733
1744
1796
1797
1788
1797
1754
1771
1778
1750
1720
1773
1821
1811
1819
1844
1807
1750
1712
1713
1729
1729
1744
1747
1759
1783
1830
1837
1809
1831
1857
1890
1920
1914
1882
1881
1856
1819
1794
1811
1757
1759
1751
1734
1723
1731
1743
1759
1778
1786
1760
1655
1579
1648
1904
2416
3097
3597
2864
2296
1980
1824
1798
1798
1785
1760
1744
1774
1766
1755
1759
1765
1795
1792
1771
1778
1807
1843
1855
1871
1882
1903
1908
1932
1934
1929
1961
2006
2084
2096
2058
2003
2000
2033
2064
2054
2033
1973
1921
1855
1822
1793
1781
1788
1781
1767
1744
1722
1713
1715
1738
1772
1760
1789
1779
1755
1744
1727
1741
1777
1783
1757
1760
1751
1722
1741
1772
1766
1790
1792
1765
1763
1767
1802
1808
1786
1759
1751
1765
1791
1782
1792
1803
1814
1808
1815
1817
1821
1840
1817
1849
1840
1856
1873
1860
1871
1867
1914
1938
1935
1919
1914
1935
1919
1949
1975
2019
2077
2078
2080
2082
2088
2096
2108
2086
2047
2007
1974
1965
1961
1968
1983
1954
1939
1953
1982
2015
2031
2011
2032
1990
1915
1898
2054
2403
2979
3700
3295
2718
2394
2171
2032
2044
2043
2009
1967
1977
1989
2011
2003
2022
2013
2032
2113
2058
2071
2099
2077
2091
2121
2155
2139
2162
2239
2224
2222
2295
2363
2331
2269
2273
2350
2368
2288
2255
2286
2203
2080
2021
1959
2080
1972
1926
1920
2032
2058
2107
2193
2173
2209
2243
1978
1840
1862
1904
2110
2112
2066
2122
2127
2185
2387
2244
1958
1894
1944
1940
1957
2092
2449
2252
1969
1986
1900
1866
2007
2111
2090
2070
2035
2117
2118
2041
1971
1934
1986
2064
2053
2093
2095
2068
2094
2077
2083
2079
1915
1854
2012
2107
1999
1925
2102
1968
1879
2000
2119
2255
2178
1920
2190
1966
1789
1728
1869
1935
1962
2071
2117
2201
2423
2015
1642
1551
1712
2065
2667
3488
4021
3255
2512
2130
2199
2325
2299
2190
2101
2137
2224
2225
2190
2157
2164
2190
2266
2257
2224
2189
2208
2261
2265
2224
2240
2269
2286
2267
2271
2209
2264
2384
2355
2298
2409
2506
2433
2293
2177
2241
2246
2215
2128
2000
1999
2032
2063
2005
2004
2030
2001
1957
1949
1962
1967
1939
1849
1728
1840
2022
2122
2122
2066
1998
1938
1933
1950
1941
1954
1955
1937
1946
1966
1969
1955
1927
1968
1984
1938
1923
1953
1983
1966
1952
1963
1958
2025
2086
2108
2116
2197
2247
2250
2273
2313
2352
2399
2413
2391
2371
2355
2399
2448
2479
2512
2512
2528
2482
2401
2360
2382
2406
2439
2428
2414
2390
2387
2403
2387
2371
2346
2263
2162
2135
2206
2512
3337
4095
3610
3017
2647
2346
2233
2219
2224
2218
2209
2198
2211
2209
2199
2209
2207
2197
2200
2187
2176
2151
2114
2138
2133
2096
2100
2122
2162
2195
2235
2225
2179
2179
2203
2222
2247
2255
2224
2181
2131
2057
1968
1858
1761
1744
1706
1711
1739
1765
1751
1729
1715
1745
1755
1741
1730
1785
1788
1730
1659
1674
1728
1734
1677
1565
1521
1524
1501
1507
1521
1507
1514
1523
1469
1409
1388
1363
1344
1411
1456
1506
1567
1589
1577
1553
1534
1254
389
192
194
211
221
233
249
245
202
142
117
86
56
30
43
32
19
2
14
44
66
92
112
139
163
215
331
382
368
325
323
443
731
1177
1900
2067
1632
1404
1171
958
962
1013
1046
1021
999
1011
1075
1104
1169
1203
1233
1314
1328
1359
1393
1426
1457
1509
1577
1586
1622
1695
1746
1767
1776
1833
1904
1936
1963
1977
1978
1968
1968
1971
1917
1872
1826
1787
1741
1721
1730
1707
1651
1663
1662
1702
1728
1675
1680
1732
1779
1777
1785
1789
1840
1853
1856
1860
1840
1850
1843
1859
1886
1927
1917
1933
1941
1939
1921
1933
1932
1885
1936
1994
2018
2021
2095
2138
2170
2173
2139
2096
2087
2027
1936
1920
1921
1944
1955
1937
1931
1914
1911
1907
1915
1911
1907
1894
1849
1765
1744
1908
2320
2894
3507
2945
2466
2218
1965
1827
1837
1835
1803
1776
1779
1767
1773
1766
1757
1773
1792
1773
1776
1775
1745
1748
1786
1803
1798
1792
1808
1822
1847
1859
1876
1913
1943
1965
1929
1933
1951
1945
1915
1875
1844
1811
1788
1759
1727
1718
1722
1705
1730
1718
1715
1740
1744
1728
1713
1724
1743
1744
1748
1750
1754
1753
1770
1771
1762
1774
1774
1730
1703
1707
1723
1739
1702
1697
1724
1765
1764
1733
1750
1810
1854
1829
1794
1728
1689
1680
1635
1578
1520
1520
1534
1546
1546
1531
1557
1565
1570
1584
1591
1593
1616
1561
1511
1565
1834
2311
2949
3344
2602
2207
1990
1837
1799
1811
1808
1795
1843
1854
1872
1872
1899
1929
1973
1990
1983
2100
1994
2019
2010
2045
2078
2105
2122
2130
2160
2206
2227
2225
2238
2257
2273
2299
2317
2315
2293
2263
2233
2213
2176
2153
2145
2125
2109
2095
2101
2094
2080
2096
2128
2116
2102
2101
2116
2122
2126
2128
2149
2151
2110
2077
2112
2128
2128
2172
2127
2119
2118
2138
2119
2107
2106
2099
2142
2171
2189
2179
2190
2233
2266
2304
2294
2250
2197
2153
2093
2032
2061
2069
2059
2037
2017
2001
1994
1973
1990
2005
2010
1979
1902
1818
1815
1936
2298
2800
3397
3216
2467
2143
1923
1802
1779
1776
1750
1735
1694
1675
1678
1691
1721
1682
1658
1659
1668
1659
1671
1680
1693
1693
1701
1683
1693
1701
1712
1723
1754
1790
1831
1777
1779
1791
1778
1777
1770
1734
1712
1658
1602
1590
1583
1569
1535
1518
1543
1567
1567
1557
1565
1582
1600
1616
1632
1638
1642
1662
1678
1682
1677
1672
1682
1709
1729
1726
1729
1723
1715
1721
1731
1745
1745
1771
1785
1747
1745
1795
1821
1842
1853
1881
1927
1964
1974
1974
1937
1900
1838
1802
1783
1787
1779
1778
1755
1745
1766
1785
1797
1808
1808
1831
1824
1775
1723
1762
1909
2253
2860
3441
3083
2495
2160
1946
1872
1894
1907
1887
1872
1865
1852
1875
1895
1882
1885
1913
1929
1931
1936
1964
1981
1983
1973
2003
2045
2065
2071
2095
2113
2107
2115
2142
2159
2175
2174
2176
2186
2157
2122
2075
2066
2044
1991
1964
1937
1936
1936
1949
1951
1958
1942
1940
1951
1965
1974
1975
1987
1998
1998
2002
1993
1983
1982
2005
2021
2016
2018
2002
1988
2013
2022
2017
2010
1991
1986
2012
2027
2015
2006
2006
2001
2000
1989
1999
2002
2009
2037
2065
2082
2073
2095
2138
2177
2177
2160
2130
2085
2017
1974
1968
1967
1936
1911
1918
1925
1907
1899
1904
1914
1959
1926
1904
1840
1808
1819
2001
2396
2941
3579
2992
2462
2203
1971
1881
1885
1906
1874
1841
1855
1851
1841
1851
1858
1854
1853
1866
1889
1901
1905
1904
1902
1910
1933
1943
1955
1971
1980
1996
2023
2022
2043
2058
2063
2069
2041
2024
2018
1975
1931
1907
1863
1841
1814
1804
1780
1801
1771
1765
1778
1788
1780
1759
1767
1782
1806
1808
1822
1808
1794
1831
1821
1798
1801
1813
1807
1801
1789
1808
1811
1803
1790
1797
1802
1793
1794
1788
1793
1801
1817
1790
1803
1826
1813
1805
1799
1797
1803
1802
1794
1801
1808
1819
1808
1804
1815
1822
1849
1872
1857
1858
1885
1927
1958
1991
1987
1929
1893
1855
1803
1774
1767
1760
1747
1734
1735
1734
1751
1744
1729
1739
1770
1762
1674
1618
1670
1850
2318
2878
3335
2836
2249
1997
1808
1743
1754
1746
1728
1707
1705
1709
1709
1713
1707
1712
1715
1718
1737
1731
1749
1772
1776
1797
1821
1825
1840
1844
1866
1888
1904
1906
1866
1966
1977
2027
1981
1969
1950
1903
1862
1831
1812
1803
1774
1754
1741
1728
1732
1744
1729
1728
1734
1753
1766
1750
1760
1773
1782
1808
1803
1792
1778
1784
1778
1792
1809
1795
1746
1744
1754
1765
1765
1744
1751
1776
1766
1754
1750
1759
1799
1805
1786
1802
1814
1818
1810
1808
1813
1836
1836
1827
1823
1798
1805
1822
1848
1841
1846
1872
1874
1839
1846
1840
1851
1874
1840
1824
1830
1867
1904
1953
1995
1965
1936
1927
1931
1938
1937
1933
1923
1916
1904
1885
1904
1910
1930
1915
1893
1867
1867
1863
1840
1842
1823
1825
1841
1809
1806
1858
1907
1966
1985
1994
1984
1939
1869
1904
2070
2426
3055
3727
3320
2745
2416
2187
2062
2032
2032
2001
1983
1963
1989
1987
1968
1968
1976
1964
1970
1963
1980
2013
2021
2032
2054
2069
2098
2099
2126
2143
2189
2239
2241
2233
2267
2279
2341
2323
2320
2303
2251
2227
2179
2140
2064
2015
1981
1971
1919
1915
1915
1904
1846
1867
1858
1861
1855
1860
1845
1843
1865
1871
1840
1834
1854
1855
1843
1846
1815
1815
1794
1783
1789
1807
1791
1787
1803
1808
1800
1807
1803
1808
1814
1813
1818
1808
1803
1791
1781
1794
1792
1789
1808
1819
1867
1909
1920
1936
1944
1938
1935
1935
1939
1947
1952
1954
1927
1894
1861
1882
1905
1932
1937
1934
2000
2080
2151
2198
2205
2192
2167
2130
2083
2074
2071
2032
1989
1943
1891
1843
1697
1350
1099
944
862
779
667
611
698
896
1257
1919
2384
2026
1424
1072
975
1015
1038
1009
1019
1049
1061
1079
1118
1152
1163
1200
1264
1261
1296
1340
1386
1417
1475
1556
1600
1655
1723
1786
1873
1953
2022
2133
2212
2358
2509
2625
2671
2693
2704
2693
2660
2638
2610
2573
2574
2543
2543
2537
2531
2511
2505
2514
2517
2501
2513
2521
2515
2513
2512
2493
2487
2496
2490
2483
2455
2446
2438
2432
2399
2401
2402
2396
2394
2384
2368
2341
2352
2314
2306
2303
2292
2288
2274
2246
2224
2176
2134
2103
2078
2034
2023
2002
1999
1964
1909
1831
1781
1683
1379
1157
1084
1050
1041
1058
1072
1088
1102
1136
1136
1113
1104
1110
1099
1093
1072
1087
1115
1155
1203
1240
1293
1360
1402
1424
1427
1395
1358
1327
1299
1299
1328
1358
1360
1371
1383
1415
1415
1410
1429
1463
1477
1455
1382
1414
1599
1954
2478
3174
2937
2266
1920
1707
1638
1655
1661
1652
1654
1654
1651
1672
1698
1709
1684
1714
1735
1748
1773
1797
1808
1823
1843
1854
1848
1902
1930
1941
1987
2002
1994
2023
2047
2068
2095
2109
2099
2087
2070
2023
2016
1992
1951
1911
1889
1897
1875
1854
1851
1856
1850
1856
1847
1860
1891
1894
1893
1903
1890
1879
1887
1910
1907
1917
1901
1887
1891
1911
1903
1907
1921
1925
1918
1906
1903
1906
1909
1908
1916
1918
1920
1911
1904
1920
1914
1885
1920
1895
1965
1939
1932
1898
1945
1936
1923
1924
1936
1934
1935
1945
1936
1919
1931
1942
1936
1945
1951
1937
1939
1946
1936
1924
1935
1941
1947
1938
1936
1923
1934
1933
1934
1940
1933
1942
1955
1968
1990
2000
2039
2081
2097
2113
2106
2051
2000
1958
1914
1899
1897
1898
1909
1897
1885
1883
1902
1899
1905
1922
1918
1857
1795
1821
1985
2386
2963
3696
3165
2544
2240
2005
1951
1936
1920
1872
1850
1846
1859
1869
1878
1881
1902
1905
1909
1921
1923
1928
1936
1939
1933
1930
1954
1969
1984
1993
2001
2019
2032
2057
2067
2069
2086
2079
2095
2081
2054
2016
1970
1927
1887
1865
1840
1819
1815
1826
1827
1835
1840
1842
1841
1840
1842
1839
1822
1824
1826
1830
1822
1810
1809
1814
1797
1798
1795
1798
1808
1804
1796
1785
1801
1808
1826
1834
1825
1823
1840
1826
1815
1838
1841
1840
1797
1844
1842
1873
1873
1863
1876
1882
1876
1881
1894
1898
1894
1890
1889
1904
1922
1921
1911
1900
1916
1934
1942
1941
1939
1952
1942
1931
1935
1929
1928
1933
1953
1945
1938
1943
1966
2006
2006
1994
2031
2063
2096
2111
2093
2045
1995
1940
1915
1887
1885
1885
1883
1862
1868
1893
1878
1872
1863
1867
1862
1814
1743
1777
1950
2363
2911
3558
3009
2477
2177
1939
1872
1883
1882
1872
1829
1819
1842
1849
1856
1862
1862
1871
1893
1903
1904
1909
1910
1899
1937
1965
1970
1982
2010
2025
2047
2078
2087
2107
2118
2128
2135
2142
2140
2113
2096
2063
2011
1983
1968
1920
1896
1891
1870
1851
1863
1869
1863
1872
1862
1855
1862
1887
1895
1876
1885
1879
1883
1897
1893
1891
1899
1904
1903
1898
1895
1904
1902
1903
1904
1907
1909
1907
1906
1911
1904
1914
1923
1915
1921
1921
1923
1928
1928
1921
1920
1934
1933
1930
1929
1946
1936
1926
1936
1937
1939
1936
1936
1932
1936
1936
1920
1935
1943
1926
1936
1931
1935
1927
1986
1994
1979
2000
2067
2103
2108
2063
2009
1973
1947
1895
1861
1869
1886
1873
1867
1853
1840
1862
1870
1865
1857
1853
1763
1689
1716
1936
2385
2981
3535
2923
2384
2093
1890
1851
1849
1826
1809
1805
1793
1793
1791
1790
1802
1834
1835
1835
1849
1851
1837
1863
1890
1902
1904
1906
1922
1942
1967
1984
2001
2017
2021
2042
2057
2061
2064
2073
2038
1986
1952
1902
1854
1823
1799
1763
1749
1728
1744
1748
1741
1744
1750
1742
1762
1753
1763
1767
1760
1763
1770
1774
1778
1775
1763
1771
1774
1761
1749
1776
1787
1781
1778
1778
1798
1774
1777
1772
1729
1781
1783
1792
1790
1783
1786
1802
1809
1799
1791
1796
1803
1806
1809
1811
1820
1835
1815
1815
1825
1811
1808
1810
1827
1867
1890
1887
1869
1898
1965
2001
1997
1963
1920
1873
1823
1792
1794
1790
1783
1769
1767
1773
1776
1785
1795
1808
1803
1776
1699
1634
1687
1882
2288
3005
3520
2944
2385
2018
1830
1805
1840
1815
1783
1775
1771
1770
1761
1765
1783
1810
1807
1806
1811
1813
1831
1829
1840
1861
1879
1890
1904
1923
1936
1959
2000
2032
2032
2107
2039
2075
2071
2047
2027
2004
1947
1913
1877
1815
1788
1781
1773
1755
1739
1733
1754
1770
1758
1762
1777
1774
1776
1797
1808
1808
1798
1798
1805
1808
1809
1814
1811
1825
1827
1831
1840
1831
1813
1815
1818
1808
1823
1841
1840
1826
1825
1823
1826
1825
1839
1835
1833
1840
1843
1840
1839
1840
1845
1895
1902
1893
1902
1928
1979
2027
2017
1971
1969
1948
1877
1842
1830
1829
1813
1789
1777
1794
1806
1793
1795
1813
1832
1837
1771
1697
1682
1809
2145
2697
3239
3049
2512
2195
2011
1859
1810
1834
1825
1787
1792
1793
1785
1778
1814
1810
1808
1833
1843
1839
1835
1842
1844
1872
1872
1887
1909
1905
1898
1926
1967
1985
1998
1995
2011
2034
2032
2019
1993
1963
1936
1902
1847
1827
1791
1788
1785
1757
1737
1755
1774
1772
1771
1778
1775
1774
1777
1787
1799
1795
1785
1803
1822
1818
1814
1810
1829
1827
1822
1815
1830
1851
1834
1821
1856
1862
1850
1835
1829
1851
1861
1847
1855
1853
1846
1845
1857
1911
1938
1913
1936
2000
2032
2066
2080
2064
2023
1993
1946
1882
1859
1854
1855
1856
1840
1821
1814
1832
1847
1855
1855
1843
1819
1740
1704
1808
2109
2608
3280
3345
2629
2243
2032
1879
1858
1841
1830
1808
1808
1808
1794
1797
1807
1819
1817
1825
1858
1867
1865
1867
1882
1895
1904
1910
1928
1954
1980
1977
1989
2029
2033
2038
2070
2089
2084
2071
2042
2004
1968
1904
1856
1831
1827
1763
1751
1781
1780
1759
1747
1760
1755
1757
1765
1767
1781
1788
1797
1795
1791
1796
1792
1797
1804
1792
1781
1792
1792
1818
1822
1814
1818
1820
1802
1820
1833
1806
1791
1787
1810
1833
1833
1808
1805
1840
1841
1826
1819
1811
1806
1826
1839
1840
1862
1901
1903
1915
1941
1981
2011
2043
2015
1973
1930
1903
1858
1809
1807
1824
1814
1840
1858
1846
1839
1857
1870
1869
1850
1790
1728
1737
1872
2243
2821
3519
3056
2512
2214
1968
1879
1856
1864
1878
1860
1792
1757
1792
1840
1834
1855
1863
1872
1872
1840
1837
1891
1915
1901
1886
1918
1942
1955
1979
1994
1969
1974
2011
2078
2099
2069
2103
2114
2086
2001
1945
1917
1833
1783
1791
1781
1770
1781
1808
1792
1763
1733
1718
1731
1680
1650
1755
1841
1859
1827
1799
1776
1777
1789
1797
1781
1792
1791
1771
1793
1821
1807
1814
1799
1786
1777
1838
1846
1847
1841
1857
1863
1870
1872
1872
1891
1915
1913
1957
2007
2023
2022
2034
2013
1975
1927
1877
1877
1861
1843
1840
1840
1851
1843
1824
1854
1862
1855
1831
1819
1776
1728
1792
1968
2370
2990
3366
2772
2420
2218
1968
1889
1882
1879
1882
1863
1866
1873
1853
1845
1879
1887
1856
1860
1904
1925
1931
1933
1926
1941
1970
1966
1965
1985
2009
2022
2054
2064
2070
2091
2083
2064
2059
2058
2039
2000
1947
1906
1861
1855
1821
1802
1776
1799
1812
1798
1783
1806
1818
1792
1781
1787
1798
1814
1797
1808
1794
1779
1835
1833
1813
1825
1840
1826
1827
1822
1842
1861
1845
1826
1835
1838
1824
1823
1834
1834
1836
1847
1877
1904
1905
1922
1964
1981
2009
2026
1995
1937
1891
1862
1846
1810
1789
1781
1785
1776
1745
1771
1776
1774
1759
1776
1808
1797
1689
1638
1723
1981
2499
3133
3166
2598
2194
2014
1872
1805
1792
1763
1723
1728
1736
1726
1730
1730
1757
1779
1781
1789
1799
1824
1825
1803
1821
1851
1857
1885
1888
1882
1917
1936
1953
1966
1995
2000
1977
1998
1990
1958
1943
1920
1895
1862
1834
1804
1782
1777
1774
1759
1767
1776
1776
1808
1802
1774
1776
1782
1783
1807
1818
1810
1791
1807
1850
1881
1872
1827
1829
1869
1874
1851
1841
1825
1827
1861
1856
1853
1842
1840
1866
1872
1861
1860
1841
1870
1891
1883
1856
1867
1887
1881
1905
1934
1951
1950
1989
2032
2083
2091
2043
2019
2016
1953
1877
1826
1810
1859
1869
1840
1813
1833
1846
1840
1831
1834
1840
1840
1776
1710
1726
1917
2334
2853
3482
2972
2442
2170
1938
1855
1859
1840
1811
1806
1805
1792
1809
1809
1795
1795
1813
1840
1846
1851
1872
1867
1878
1903
1886
1874
1902
1936
1958
1958
1962
1975
1995
2017
2019
2007
2005
2000
1953
1907
1903
1874
1841
1795
1760
1751
1744
1727
1724
1718
1707
1722
1728
1712
1719
1737
1733
1739
1735
1751
1733
1738
1753
1745
1733
1739
1747
1755
1754
1755
1743
1760
1765
1747
1728
1732
1744
1754
1747
1745
1722
1712
1726
1755
1781
1757
1747
1750
1748
1750
1760
1762
1757
1776
1792
1778
1790
1813
1808
1801
1840
1867
1851
1863
1888
1920
1964
1987
2000
1984
1936
1898
1871
1850
1813
1785
1798
1799
1810
1809
1807
1807
1810
1808
1809
1811
1783
1717
1717
1813
2102
2587
3302
3230
2595
2240
1996
1866
1856
1872
1841
1821
1816
1803
1817
1802
1815
1818
1793
1848
1859
1888
1852
1871
1898
1905
1898
1902
1931
1951
1963
1972
1991
2016
2032
2046
2070
2083
2095
2064
2033
2020
2000
1985
1930
1872
1839
1814
1795
1794
1810
1799
1787
1803
1815
1799
1798
1809
1831
1856
1871
1862
1845
1857
1865
1873
1879
1873
1860
1883
1895
1878
1888
1910
1906
1892
1904
1896
1875
1918
1938
1936
1918
1927
1926
1931
1949
1938
1950
1945
1931
1936
1963
1986
1983
1950
1955
1968
1983
1970
1951
1943
1947
1966
1973
1970
1961
1949
1936
1930
1930
1931
1934
1936
1939
1949
1933
1926
1931
1937
1936
1932
1920
1934
1930
1939
1943
1934
1951
1946
1970
1946
1950
1940
1950
1939
1957
1941
1913
1921
1936
1933
1927
1962
1946
1931
1917
1925
1920
1935
1934
1946
1959
1994
2006
2030
2053
2033
2018
1995
1961
1934
1909
1899
1860
1846
1858
1858
1865
1862
1846
1855
1867
1868
1854
1792
1728
1744
1949
2389
2990
3632
3025
2437
2110
1942
1910
1901
1856
1823
1817
1819
1820
1819
1846
1867
1874
1878
1882
1883
1872
1902
1911
1909
1910
1919
1958
1986
1989
1983
2011
2064
2077
2070
2082
2108
2128
2142
2112
2083
2079
2061
1995
1977
1939
1925
1895
1872
1856
1842
1857
1867
1862
1862
1886
1904
1920
1927
1934
1937
1964
1951
1951
1971
1967
1964
1984
1997
1991
1977
1991
2019
2032
2043
2022
2013
2025
2032
2035
2034
2057
2071
2078
2069
2065
2096
2110
2089
2083
2096
2093
2079
2096
2101
2137
2123
2101
2103
2109
2129
2110
2119
2111
2121
2123
2117
2103
2109
2113
2126
2118
2108
2112
2122
2142
2137
2115
2103
2086
2070
2076
2065
2032
2025
2028
2003
1997
2003
2010
2043
2054
2047
2042
2080
2121
2118
2106
2064
2028
1993
1942
1907
1902
1908
1894
1885
1889
1874
1860
1875
1888
1879
1872
1830
1730
1721
1808
2082
2735
3379
3306
2631
2199
1979
1920
1836
1844
1776
1755
1744
1725
1722
1730
1723
1722
1725
1716
1714
1729
1734
1744
1751
1749
1769
1783
1787
1793
1814
1842
1876
1899
1911
1919
1915
1949
1965
1950
1935
1904
1863
1819
1774
1731
1722
1701
1673
1650
1672
1667
1664
1664
1665
1664
1680
1706
1701
1687
1687
1726
1745
1766
1779
1818
1869
1889
1888
1917
1977
2009
2027
2038
2064
2099
2130
2133
2135
2142
2158
2170
2178
2169
2147
2126
2131
2128
2102
2083
2085
2092
2101
2094
2070
2081
2091
2086
2078
2065
2042
2033
2037
2015
2000
1995
1968
1941
1920
1914
1909
1887
1872
1857
1856
1851
1816
1798
1794
1799
1790
1808
1810
1827
1835
1846
1865
1885
1889
1886
1856
1818
1754
1713
1723
1725
1711
1703
1699
1681
1686
1673
1670
1655
1638
1628
1584
1467
1409
1463
1681
2160
2799
3114
2511
1989
1684
1494
1462
1438
1409
1382
1349
1314
1392
1421
1412
1415
1424
1456
1463
1469
1483
1520
1535
1543
1552
1584
1609
1623
1638
1680
1724
1737
1745
1782
1825
1837
1856
1872
1869
1837
1797
1742
1698
1663
1639
1617
1612
1591
1587
1615
1625
1618
1621
1642
1648
1659
1685
1683
1700
1728
1735
1737
1731
1740
1741
1733
1727
1727
1729
1730
1712
1732
1761
1757
1741
1744
1764
1767
1772
1762
1759
1783
1792
1779
1778
1806
1815
1840
1849
1853
1840
1840
1841
1867
1872
1877
1875
1879
1882
1877
1903
1920
1930
1923
1923
1921
1934
1941
1930
1931
1883
1937
1941
1956
1954
1961
1989
2039
2062
2043
2054
2096
2139
2162
2149
2112
2079
2041
2010
1972
1970
1975
1981
1997
2003
2010
2000
1970
1985
2000
2011
1973
1907
1865
1894
2135
2592
3280
3842
3024
2544
2256
2043
1985
2000
1990
1968
1953
1961
1963
1939
1953
1993
2000
2004
1994
1971
1973
2000
2017
2016
2019
2053
2087
2105
2126
2135
2147
2176
2183
2194
2237
2225
2238
2251
2229
2183
2155
2112
2064
1993
1978
1938
1919
1931
1917
1899
1887
1882
1904
1936
1934
1899
1889
1904
1920
1922
1904
1912
1929
1936
1934
1913
1915
1925
1938
1929
1927
1936
1942
1927
1919
1932
1937
1936
1936
1928
1924
1936
1939
1936
1949
1947
1927
1947
1946
1925
1921
1939
1952
1936
1919
1939
1963
1976
1984
2004
2022
2027
2061
2085
2096
2085
2078
2030
1967
1925
1904
1879
1875
1875
1873
1863
1856
1872
1885
1871
1881
1891
1875
1803
1746
1743
1866
2318
2864
3466
3184
2487
2222
2018
1903
1879
1878
1858
1837
1826
1829
1842
1840
1840
1843
1873
1886
1884
1877
1903
1918
1907
1911
1935
1967
1985
1990
2011
2037
2064
2079
2087
2096
2101
2110
2109
2112
2097
2042
1990
1951
1905
1872
1840
1815
1810
1821
1811
1819
1811
1803
1820
1837
1840
1825
1834
1838
1841
1856
1861
1872
1885
1883
1861
1873
1891
1899
1883
1870
1889
1904
1898
1895
1887
1901
1911
1904
1915
1927
1923
1904
1911
1921
1919
1918
1918
1926
1936
1934
1936
1939
1947
1955
1990
2005
2000
2026
2081
2098
2112
2112
2055
2001
1956
1922
1898
1903
1904
1891
1885
1888
1891
1899
1898
1897
1897
1902
1865
1775
1734
1810
2141
2640
3327
3561
2714
2320
2081
1927
1898
1890
1865
1851
1863
1871
1850
1851
1847
1862
1878
1872
1872
1891
1888
1904
1930
1927
1923
1947
1987
1995
1990
1988
2016
2063
2061
2055
2067
2083
2077
2078
2055
2005
1963
1923
1875
1827
1775
1749
1744
1738
1730
1737
1744
1742
1739
1740
1749
1738
1727
1730
1743
1760
1754
1758
1763
1775
1757
1747
1754
1764
1753
1744
1747
1767
1771
1762
1768
1770
1789
1794
1777
1771
1762
1746
1754
1771
1781
1755
1759
1789
1802
1923
1834
1859
1898
1909
1904
1872
1833
1775
1722
1713
1699
1681
1696
1708
1707
1662
1666
1677
1688
1689
1691
1677
1611
1553
1565
1729
2133
2677
3264
2800
2278
1991
1744
1683
1690
1682
1683
1680
1653
1638
1647
1651
1664
1678
1680
1683
1696
1712
1723
1717
1725
1734
1753
1744
1769
1792
1840
1860
1867
1866
1935
1885
1889
1904
1923
1899
1847
1798
1739
1708
1682
1635
1599
1590
1585
1593
1602
1584
1584
1599
1627
1639
1637
1637
1636
1651
1673
1679
1658
1681
1701
1707
1699
1697
1712
1712
1733
1743
1743
1746
1746
1750
1762
1765
1776
1779
1791
1797
1823
1836
1824
1794
1818
1845
1838
1830
1841
1855
1872
1874
1901
1936
1946
1940
1973
2034
2064
2064
2010
2074
1925
1901
1881
1862
1856
1856
1846
1853
1862
1860
1855
1856
1856
1872
1875
1808
1722
1712
1840
2157
2698
3363
3325
2657
2242
2000
1898
1895
1872
1850
1834
1831
1840
1861
1858
1851
1849
1847
1877
1905
1905
1900
1924
1935
1917
1917
1971
1984
2000
2018
2035
2071
2096
2111
2128
2126
2145
2161
2147
2107
2066
2037
1997
1946
1901
1872
1828
1808
1809
1815
1836
1833
1834
1836
1842
1849
1840
1854
1873
1872
1873
1882
1872
1885
1897
1879
1882
1902
1907
1891
1894
1904
1905
1899
1893
1887
1890
1916
1919
1910
1905
1907
1918
1917
1914
1925
1919
1926
1914
1914
1933
1936
1930
1921
1911
1930
1943
1933
1920
1933
1943
1915
1920
1961
1973
1978
1973
1990
2032
2089
2106
2064
2011
1987
1947
1913
1888
1859
1850
1851
1840
1838
1857
1863
1873
1872
1860
1856
1842
1757
1689
1738
1955
2403
3170
3526
2879
2371
2053
1889
1859
1859
1840
1808
1798
1808
1807
1794
1798
1797
1810
1830
1827
1817
1841
1873
1882
1878
1873
1877
1904
1925
1942
1968
1973
1968
2007
2037
2047
2061
2058
2063
2065
2059
2000
1936
1889
1842
1809
1808
1792
1774
1759
1768
1765
1761
1776
1798
1789
1789
1805
1826
1823
1820
1826
1835
1831
1867
1822
1830
1841
1839
1845
1840
1831
1829
1851
1868
1872
1875
1871
1854
1853
1857
1863
1881
1878
1871
1892
1904
1899
1902
1904
1903
1894
1902
1895
1885
1887
1904
1919
1922
1918
1909
1917
1936
1947
1943
1975
2021
2045
2055
2015
1968
1941
1920
1862
1838
1832
1839
1841
1823
1794
1808
1821
1815
1823
1817
1833
1792
1711
1679
1782
2081
2578
3222
3136
2534
2230
1990
1818
1776
1764
1751
1739
1716
1708
1707
1702
1692
1700
1710
1715
1738
1758
1757
1744
1744
1776
1794
1783
1771
1791
1821
1861
1887
1896
1890
1908
1923
1926
1941
1934
1904
1876
1811
1799
1776
1740
1699
1686
1702
1701
1691
1691
1663
1682
1712
1697
1702
1703
1726
1763
1773
1764
1776
1780
1779
1777
1808
1811
1795
1799
1833
1847
1837
1832
1823
1799
1823
1840
1855
1858
1830
1827
1853
1886
1884
1887
1877
1873
1870
1889
1899
1916
1926
1925
1922
1927
1920
1922
1917
1936
1963
1974
1991
2002
2051
2085
2102
2105
2067
2045
2034
1967
1916
1938
1950
1936
1915
1915
1922
1939
1943
1929
1935
1955
1950
1899
1798
1772
1947
2319
2853
3563
3135
2572
2256
2003
1886
1867
1840
1795
1789
1792
1790
1769
1749
1759
1779
1790
1791
1777
1783
1811
1828
1840
1850
1859
1881
1901
1926
1956
1981
2000
2031
2055
2061
2079
2083
2090
2094
2075
2032
1993
1943
1934
1913
1872
1840
1835
1839
1840
1851
1856
1853
1853
1859
1866
1872
1879
1888
1903
1904
1918
1921
1946
1952
1948
1941
1934
1942
1947
1925
1910
1934
1936
1936
1941
1948
1928
1915
1925
1936
1931
1918
1905
1893
1898
1898
1904
1904
1910
1902
1894
1891
1872
1869
1884
1891
1883
1893
1872
1882
1914
1948
1951
1968
1979
2021
2059
2079
2081
2053
2010
1959
1919
1929
1935
1931
1921
1911
1904
1935
1953
1964
1955
1963
1956
1953
1888
1840
1865
2075
2531
3140
3823
3002
2489
2204
2025
1986
1985
1963
1957
1932
1937
1940
1950
1967
1978
1981
2006
2016
2022
2020
2019
2032
2065
2107
2112
2133
2169
2195
2203
2237
2267
2287
2311
2334
2330
2352
2368
2351
2333
2305
2257
2202
2167
2134
2100
2100
2106
2097
2098
2095
2110
2101
2102
2111
2113
2113
2114
2112
2096
2106
2101
2107
2111
2105
2093
2079
2081
2096
2096
2081
2071
2058
2064
2047
2047
2052
2046
2026
2026
2019
2022
2025
2009
2001
1994
1998
1989
1983
1984
1989
1988
1969
1958
1951
1952
1954
1954
1956
1939
1937
1936
1929
1914
1907
1904
1895
1904
1914
1900
1879
1899
1898
1892
1894
1882
1871
1877
1877
1898
1904
1917
1919
1962
2022
2033
2033
1990
1937
1903
1877
1817
1778
1783
1789
1785
1789
1773
1772
1791
1791
1776
1755
1759
1712
1629
1642
1775
2161
2869
3481
3079
2433
1999
1803
1776
1776
1739
1711
1691
1703
1718
1728
1712
1699
1731
1729
1737
1742
1758
1749
1767
1776
1778
1811
1821
1826
1840
1861
1875
1895
1915
1941
1959
1991
2006
1989
1982
1982
1949
1892
1854
1808
1750
1728
1707
1691
1676
1676
1689
1691
1665
1669
1697
1712
1726
1698
1711
1730
1729
1738
1727
1721
1730
1739
1729
1747
1776
1753
1751
1747
1731
1742
1747
1783
1793
1798
1811
1797
