1845
1841
1843
1843
1841
1847
1843
1857
1855
1859
1870
1866
1868
1872
1874
1872
1873
1868
1869
1866
1863
1863
1870
1867
1876
1877
1914
1931
1945
1987
2037
2046
1985
1968
1958
1936
1877
1833
1849
1863
1824
1825
1850
1835
1839
1845
1842
1840
1856
1834
1776
1757
1840
2064
2483
3063
3408
2716
2352
2158
1939
1874
1872
1840
1825
1827
1841
1843
1845
1836
1831
1856
1871
1872
1889
1904
1902
1905
1921
1936
1934
1934
1967
1982
1998
1998
2011
2046
2062
2071
2098
2111
2131
2149
2130
2096
2054
2025
1979
1957
1929
1903
1898
1871
1847
1861
1863
1853
1854
1850
1861
1871
1863
1866
1859
1893
1908
1905
1889
1874
1883
1906
1915
1912
1920
1952
1883
1933
1924
1934
1999
1931
1914
1931
1942
1936
1925
1926
1915
1926
1931
1925
1936
1927
1925
1938
1938
1956
1968
1980
1986
2003
2043
2081
2082
2074
2058
2000
1953
1914
1885
1863
1859
1861
1839
1840
1840
1833
1853
1853
1849
1865
1856
1759
1710
1756
1940
2421
2992
3453
2911
2339
2081
1878
1831
1827
1799
1792
1799
1770
1705
1766
1773
1794
1794
1787
1793
1797
1804
1805
1827
1837
1819
1826
1849
1861
1866
1881
1899
1915
1937
1950
1968
1984
1997
2000
1998
1971
1965
1947
1909
1859
1823
1787
1754
1741
1719
1706
1702
1706
1696
1691
1707
1707
1707
1712
1712
1714
1724
1732
1766
1727
1721
1730
1749
1759
1753
1760
1770
1758
1766
1758
1761
1771
1787
1771
1759
1778
1783
1782
1789
1779
1774
1792
1806
1803
1803
1806
1808
1808
1809
1810
1823
1838
1819
1817
1823
1827
1824
1843
1850
1855
1875
1872
1854
1853
1871
1874
1858
1863
1857
1872
1872
1878
1875
1885
1891
1878
1875
1886
1889
1899
1887
1886
1894
1899
1891
1898
1906
1898
1905
1920
1913
1905
1904
1907
1919
1916
1921
1927
1905
1906
1904
1921
1923
1918
1920
1937
1915
1915
1921
1926
1929
1947
1942
1920
1923
1951
1981
2015
2002
2026
2064
2063
2035
1977
1946
1927
1923
1907
1910
1904
1902
1890
1886
1891
1901
1904
1911
1871
1797
1792
1914
2220
2741
3507
3357
2612
2205
1958
1936
1939
1906
1860
1844
1842
1836
1849
1857
1841
1840
1855
1852
1869
1873
1891
1881
1891
1903
1904
1919
1936
1936
1969
1968
1964
1985
2021
2025
2038
2074
2083
2095
2097
2101
2090
2075
2032
1984
1938
1913
1859
1831
1807
1789
1797
1782
1764
1776
1790
1783
1798
1808
1808
1795
1792
1822
1811
1802
1819
1825
1834
1828
1833
1840
1849
1846
1847
1844
1834
1836
1840
1834
1840
1850
1844
1847
1849
1856
1836
1843
1856
1854
1847
1848
1861
1861
1868
1871
1856
1863
1873
1867
1871
1862
1862
1871
1873
1874
1874
1871
1872
1867
1880
1875
1879
1881
1872
1875
1883
1872
1874
1884
1895
1880
1871
1873
1873
1893
1884
1882
1875
1882
1891
1881
1891
1895
1891
1894
1877
1872
1884
1888
1887
1901
1910
1906
1904
1904
1910
1902
1931
1951
1974
1985
1979
2003
2051
2031
2007
1970
1930
1895
1882
1883
1872
1882
1868
1857
1872
1877
1881
1887
1890
1862
1808
1751
1749
1906
2335
2933
3664
3126
2496
2142
1933
1892
1872
1856
1840
1815
1829
1823
1821
1843
1857
1859
1872
1901
1892
1887
1892
1907
1922
1923
1921
1942
1963
1987
1990
2017
2034
2076
2064
2081
2100
2117
2123
2128
2141
2149
2119
2091
2064
2020
1965
1926
1888
1871
1873
1844
1840
1835
1813
1833
1850
1866
1851
1838
1840
1872
1871
1875
1891
1898
1895
1891
1895
1893
1904
1888
1904
1913
1905
1921
1937
1914
1901
1901
1905
1910
1922
1923
1917
1921
1872
1910
1923
1905
1898
1920
1940
1945
1952
1936
1935
1926
1935
1934
1921
1909
1920
1931
1939
1960
1931
1941
1939
1920
1929
1943
1954
1929
1937
1939
1927
1936
1927
1936
1949
1954
1950
1955
1969
1995
1974
1957
1987
2015
2046
2047
2047
2025
1979
1911
1904
1917
1867
1889
1899
1877
1862
1889
1872
1883
1901
1879
1856
1777
1749
1815
2032
2453
3105
3203
2663
2358
2130
1922
1850
1870
1840
1819
1834
1831
1787
1806
1840
1851
1796
1798
1839
1830
1813
1850
1871
1849
1836
1851
1855
1885
1903
1925
1933
1947
1945
1947
1984
1979
1983
2027
2032
2015
1990
1971
1929
1882
1872
1848
1814
1807
1758
1750
1747
1707
1728
1743
1742
1758
1760
1755
1763
1770
1776
1762
1749
1776
1804
1776
1770
1790
1785
1772
1781
1798
1790
1797
1810
1806
1815
1805
1776
1781
1821
1810
1781
1795
1819
1822
1825
1847
1844
1860
1866
1889
1926
1936
1955
1966
1956
1894
1851
1827
1797
1792
1805
1790
1762
1759
1769
1763
1778
1792
1789
1793
1776
1717
1672
1712
1858
2178
2657
3183
2767
2370
2183
1994
1804
1793
1801
1774
1762
1743
1706
1738
1749
1749
1761
1759
1775
1808
1811
1798
1799
1831
1830
1826
1840
1843
1856
1869
1898
1917
1936
1938
1959
1989
1998
1984
2001
2002
1982
1953
1938
1875
1837
1808
1788
1776
1761
1737
1733
1759
1731
1728
1726
1743
1746
1746
1745
1739
1776
1769
1767
1766
1773
1774
1783
1792
1776
1785
1795
1794
1794
1794
1789
1786
1787
1801
1798
1797
1808
1807
1782
1827
1818
1808
1812
1797
1803
1808
1798
1845
1867
1861
1859
1894
1929
1965
1991
1987
1941
1916
1888
1839
1794
1789
1808
1790
1767
1766
1771
1775
1774
1769
1790
1791
1776
1744
1666
1659
1750
2012
2512
3088
3126
2576
2224
2025
1831
1773
1775
1758
1750
1744
1745
1746
1757
1759
1749
1754
1759
1786
1776
1792
1807
1767
1808
1825
1851
1872
1861
1855
1885
1919
1921
1947
1958
1970
2004
2032
2013
2000
2007
1996
1982
1936
1889
1868
1834
1798
1755
1767
1764
1753
1750
1751
1743
1756
1757
1755
1776
1771
1764
1778
1792
1801
1793
1806
1808
1808
1813
1809
1806
1810
1818
1810
1803
1809
1815
1818
1823
1824
1823
1831
1838
1843
1841
1838
1838
1840
1835
1829
1843
1846
1847
1841
1852
1854
1863
1866
1843
1850
1856
1868
1858
1851
1857
1856
1882
1886
1899
1908
1929
1936
1953
1986
2014
2032
2005
1957
1910
1872
1855
1840
1838
1824
1802
1809
1811
1813
1805
1820
1821
1827
1817
1750
1691
1711
1851
2214
2752
3336
2979
2450
2160
1941
1831
1818
1808
1792
1777
1760
1770
1783
1787
1778
1786
1793
1805
1818
1815
1820
1835
1844
1850
1856
1877
1888
1905
1920
1921
1936
1967
1985
2000
2007
2001
2025
2043
2045
2034
2027
1986
1949
1920
1900
1845
1809
1783
1761
1761
1781
1766
1767
1778
1776
1777
1796
1806
1809
1826
1824
1809
1811
1823
1821
1815
1831
1845
1841
1847
1840
1839
1855
1858
1859
1872
1865
1847
1861
1867
1856
1875
1882
1888
1879
1877
1889
1895
1897
1873
1888
1917
1925
1916
1915
1914
1914
1915
1930
1920
1925
1925
1930
1918
1914
1920
1930
1936
1936
1933
1938
1943
1936
1932
1936
1943
1935
1918
1931
1930
1936
1936
1941
1949
1946
1943
1950
1936
1948
1963
1936
1932
1937
1943
1937
1939
1954
1943
1978
1994
1979
1995
2023
2061
2095
2096
2064
2018
1990
1947
1921
1918
1908
1919
1889
1886
1871
1885
1905
1893
1887
1882
1867
1803
1750
1785
1991
2438
3056
3623
2935
2384
2084
1898
1874
1863
1840
1824
1809
1809
1810
1813
1819
1822
1811
1811
1835
1839
1856
1857
1855
1858
1875
1895
1889
1903
1915
1923
1952
1957
1962
1993
2017
2025
2035
2059
2058
2053
2063
2046
2012
1977
1941
1901
1856
1827
1781
1778
1774
1762
1748
1770
1759
1766
1776
1785
1791
1808
1808
1792
1809
1813
1810
1835
1834
1818
1829
1851
1853
1847
1853
1840
1858
1858
1856
1856
1869
1861
1870
1885
1877
1877
1878
1891
1891
1899
1907
1890
1881
1893
1891
1905
1910
1917
1927
1894
1903
1905
1909
1960
1917
1930
1968
1918
1927
1923
1929
1933
1939
1939
1935
1937
1926
1926
1938
1934
1925
1950
1943
1923
1937
1947
1951
1949
1954
1948
1939
1961
1947
1946
1959
1961
1968
1997
2002
2006
2028
2068
2105
2121
2112
2074
2029
1984
1942
1926
1926
1909
1907
1909
1914
1913
1916
1904
1950
1905
1911
1878
1791
1746
1851
2181
2746
3591
3485
2742
2277
1986
1927
1906
1877
1859
1831
1824
1832
1840
1841
1842
1842
1837
1858
1866
1874
1889
1887
1887
1890
1918
1920
1918
1934
1955
1963
1995
2001
2007
2032
2064
2074
2095
2104
2112
2098
2069
2030
2000
1962
1917
1869
1846
1813
1783
1777
1775
1775
1776
1770
1766
1771
1787
1788
1788
1808
1808
1808
1821
1810
1823
1837
1835
1836
1842
1846
1841
1842
1843
1851
1853
1852
1840
1842
1852
1847
1845
1859
1857
1849
1857
1851
1866
1874
1866
1870
1872
1876
1872
1879
1893
1872
1874
1875
1882
1875
1875
1873
1881
1902
1881
1873
1853
1885
1882
1895
1892
1901
1903
1894
1891
1879
1883
1889
1885
1891
1887
1895
1917
1913
1893
1895
1910
1919
1936
1936
1955
2022
2067
2043
2006
1969
1938
1897
1879
1856
1847
1855
1850
1832
1827
1840
1849
1863
1863
1843
1830
1775
1680
1686
1834
2211
2931
3568
3159
2518
2107
1897
1859
1862
1835
1808
1798
1787
1792
1799
1803
1809
1809
1827
1841
1856
1849
1830
1841
1857
1863
1873
1894
1907
1918
1935
1954
1962
2002
2022
2046
2079
2076
2070
2077
2091
2086
2064
2027
1986
1935
1904
1861
1821
1792
1782
1770
1776
1779
1763
1765
1772
1770
1774
1778
1789
1795
1803
1814
1808
1808
1813
1823
1823
1829
1827
1819
1818
1822
1823
1827
1821
1815
1809
1827
1833
1835
1840
1840
1845
1828
1823
1840
1851
1851
1859
1859
1840
1840
1858
1853
1843
1863
1875
1879
1878
1866
1856
1865
1885
1875
1879
1872
1847
1872
1872
1875
1904
1922
1918
1934
1952
1999
2023
2031
2009
1970
1921
1878
1844
1855
1843
1808
1811
1828
1831
1838
1835
1821
1840
1841
1810
1730
1680
1697
1827
2270
2773
3229
2902
2440
2192
1982
1841
1809
1802
1789
1787
1783
1796
1794
1797
1780
1777
1802
1813
1802
1795
1826
1823
1810
1840
1847
1855
1891
1895
1907
1943
1976
1983
1990
2022
2018
2018
2038
2062
2075
2044
2001
1989
1965
1934
1866
1837
1808
1787
1773
1776
1776
1761
1755
1749
1761
1773
1773
1776
1792
1813
1799
1776
1792
1808
1810
1796
1792
1806
1811
1795
1793
1810
1823
1817
1789
1807
1819
1819
1813
1816
1831
1806
1793
1813
1820
1820
1808
1808
1808
1814
1819
1825
1819
1826
1824
1838
1923
1881
1856
1894
1948
1968
1969
1963
1922
1902
1872
1825
1796
1797
1792
1777
1787
1780
1789
1779
1798
1811
1793
1810
1783
1698
1661
1714
1910
2313
2956
3144
2624
2321
2091
1900
1811
1799
1776
1792
1747
1733
1739
1765
1771
1777
1776
1780
1784
1791
1789
1797
1810
1815
1818
1836
1847
1873
1894
1905
1904
1930
1939
1954
1983
1985
2011
2021
2029
2032
1999
1979
1950
1927
1872
1842
1814
1783
1773
1770
1765
1783
1778
1765
1777
1777
1791
1787
1794
1808
1821
1808
1811
1819
1831
1819
1829
1841
1857
1847
1854
1845
1841
1837
1840
1842
1847
1843
1856
1857
1850
1873
1872
1853
1856
1869
1884
1888
1883
1870
1870
1886
1900
1903
1899
1904
1926
1946
1957
1954
1975
2018
2046
2071
2035
2011
1995
1969
1919
1904
1886
1883
1875
1872
1876
1875
1879
1894
1897
1888
1890
1882
1815
1759
1791
1958
2342
2864
3359
2901
2493
2246
2001
1901
1877
1872
1850
1849
1856
1858
1845
1841
1843
1851
1863
1879
1886
1888
1904
1905
1918
1923
1918
1931
1950
1955
1977
2011
2000
2011
2042
2064
2064
2071
2098
2098
2092
2094
2045
2013
1971
1919
1873
1855
1856
1841
1777
1810
1794
1791
1798
1795
1802
1797
1809
1814
1818
1821
1810
1823
1827
1830
1849
1850
1839
1841
1842
1840
1849
1850
1851
1860
1853
1853
1857
1874
1870
1863
1866
1857
1857
1874
1877
1875
1898
1894
1874
1882
1884
1886
1889
1889
1877
1892
1904
1903
1904
1903
1897
1909
1914
1913
1903
1913
1906
1904
1896
1907
1916
1920
1921
1911
1920
1936
1947
1963
1979
1983
2005
2069
2096
2077
2042
2011
1983
1926
1875
1861
1872
1873
1863
1856
1858
1862
1862
1923
1915
1856
1863
1792
1719
1730
1927
2336
2943
3571
3026
2414
2086
1872
1870
1858
1830
1817
1821
1808
1802
1802
1826
1814
1818
1830
1842
1845
1856
1863
1871
1875
1876
1904
1920
1920
1939
1947
1969
1980
2001
2027
2043
2077
2096
2102
2107
2114
2107
2083
2032
1984
1951
1911
1847
1818
1806
1792
1780
1777
1781
1783
1792
1801
1807
1805
1820
1809
1814
1825
1818
1833
1863
1850
1847
1856
1868
1859
1862
1872
1881
1882
1883
1872
1885
1885
1881
1899
1901
1898
1906
1909
1904
1904
1919
1921
1924
1931
1932
1924
1932
1920
1922
1930
1931
1936
1939
1947
1946
1950
1958
1936
1943
1961
1962
1959
1970
1968
1965
1968
1967
1966
1968
1967
1958
1974
1968
1961
1968
1979
1975
1971
1971
1962
1962
1983
1982
1968
2000
2017
2021
2019
2047
2101
2130
2141
2113
2074
2035
2003
1961
1936
1921
1927
1927
1911
1904
1903
1906
1907
1911
1914
1911
1862
1780
1743
1869
2231
2802
3536
3371
2653
2227
1985
1915
1914
1889
1859
1840
1839
1839
1840
1850
1862
1861
1850
1856
1868
1877
1883
1886
1906
1920
1921
1932
1959
1984
1985
1991
2001
2014
2052
2082
2096
2099
2114
2113
2119
2134
2128
2083
2041
1995
1949
1907
1895
1866
1850
1826
1821
1823
1834
1835
1822
1815
1829
1833
1840
1838
1840
1843
1856
1856
1923
1856
1851
1867
1872
1872
1890
1871
1851
1872
1905
1889
1866
1869
1863
1849
1838
1849
1858
1883
1878
1863
1860
1872
1872
1871
1897
1872
1883
1891
1877
1869
1874
1897
1883
1877
1875
1886
1891
1887
1891
1910
1899
1887
1898
1898
1903
1899
1891
1895
1905
1907
1903
1894
1894
1911
1923
1931
1936
1923
1936
1941
1936
1974
2023
2057
2047
2017
1968
1936
1924
1891
1879
1875
1856
1842
1842
1829
1833
1825
1838
1837
1850
1824
1735
1681
1751
1949
2370
3039
3216
2692
2352
2101
1888
1818
1823
1790
1785
1770
1756
1766
1751
1771
1781
1789
1796
1809
1803
1793
1803
1833
1837
1827
1841
1855
1847
1863
1890
1913
1927
1955
1947
1982
1988
1994
2007
2000
2003
2002
1985
1952
1919
1879
1843
1808
1781
1744
1731
1742
1753
1744
1741
1747
1755
1742
1742
1746
1771
1770
1763
1776
1782
1794
1777
1766
1777
1786
1793
1792
1787
1798
1808
1792
1786
1799
1805
1792
1796
1806
1787
1795
1792
1799
1814
1834
1814
1821
1827
1826
1826
1819
1820
1824
1840
1808
1813
1838
1854
1862
1887
1921
1955
1965
1964
1952
1920
1888
1843
1813
1803
1793
1782
1792
1792
1780
1774
1776
1777
1793
1797
1803
1766
1675
1657
1771
2077
2636
3171
2994
2498
2198
1991
1821
1787
1786
1771
1757
1744
1755
1750
1760
1771
1785
1796
1806
1795
1798
1809
1815
1834
1834
1833
1847
1872
1873
1876
1885
1904
1936
1941
1962
1968
1976
1991
2000
2009
2002
1968
1936
1909
1856
1822
1793
1770
1743
1728
1712
1750
1712
1671
1723
1727
1717
1707
1728
1741
1734
1739
1749
1761
1760
1755
1755
1765
1783
1778
1763
1774
1769
1765
1786
1792
1785
1778
1776
1771
1789
1793
1792
1788
1805
1808
1808
1808
1798
1803
1808
1815
1823
1827
1831
1811
1814
1820
1815
1820
1840
1837
1829
1829
1840
1843
1855
1861
1853
1842
1851
1854
1857
1865
1893
1915
1926
1916
1952
1998
2038
2030
2004
1967
1919
1872
1847
1825
1827
1837
1821
1819
1826
1811
1831
1837
1830
1837
1830
1748
1685
1729
1919
2352
3066
3479
2875
2351
2009
1850
1824
1835
1806
1785
1787
1783
1790
1789
1792
1794
1798
1798
1813
1825
1840
1850
1849
1857
1862
1873
1890
1897
1919
1927
1933
1957
1990
2007
2032
2059
2061
2059
2023
2083
2067
2032
2000
1955
1905
1863
1830
1814
1790
1763
1747
1755
1759
1753
1762
1751
1758
1762
1776
1778
1782
1781
1777
1786
1793
1862
1798
1808
1811
1808
1819
1819
1818
1834
1826
1826
1829
1827
1824
1815
1829
1826
1839
1840
1821
1823
1844
1853
1798
1865
1865
1859
1859
1859
1856
1870
1880
1871
1878
1883
1863
1871
1872
1870
1873
1899
1885
1872
1859
1862
1868
1871
1872
1875
1875
1873
1886
1887
1894
1890
1910
1909
1902
1899
1901
1901
1907
1946
1947
1951
1978
2023
2077
2085
2064
2018
1984
1947
1897
1868
1874
1903
1865
1868
1856
1858
1857
1870
1877
1890
1875
1837
1742
1708
1785
2086
2723
3421
3472
2753
2217
1963
1881
1877
1854
1827
1801
1796
1808
1812
1814
1808
1829
1835
1842
1852
1857
1867
1877
1873
1887
1893
1903
1903
1924
1942
1958
1987
1999
2014
2034
2054
2070
2093
2103
2101
2109
2094
2055
2011
1968
1923
1891
1855
1821
1798
1795
1795
1771
1785
1792
1792
1811
1811
1799
1795
1821
1819
1824
1829
1843
1840
1839
1839
1840
1856
1861
1865
1855
1855
1844
1842
1859
1860
1867
1873
1868
1872
1879
1872
1877
1883
1874
1872
1891
1891
1894
1885
1888
1886
1899
1893
1877
1891
1899
1894
1899
1906
1895
1904
1911
1904
1897
1902
1897
1899
1919
1923
1915
1912
1904
1901
1911
1921
1920
1915
1909
1907
1909
1921
1918
1906
1915
1921
1914
1920
1914
1911
1924
1934
1930
1914
1909
1910
1911
1936
1920
1916
1911
1910
1923
1954
1968
1947
1968
2016
2044
2064
2055
2018
1989
1950
1895
1875
1882
1871
1858
1862
1857
1850
1856
1856
1857
1870
1857
1808
1728
1695
1807
2135
2704
3438
3359
2683
2239
1974
1882
1867
1835
1808
1787
1780
1776
1778
1783
1792
1787
1787
1806
1812
1830
1839
1843
1841
1851
1872
1872
1872
1893
1893
1921
1936
1951
1907
1997
2011
2027
2053
2068
2054
2047
2046
2018
1993
1947
1901
1856
1817
1790
1766
1753
1755
1758
1759
1760
1762
1754
1761
1772
1782
1796
1803
1795
1799
1802
1810
1837
1841
1829
1840
1854
1852
1846
1856
1855
1862
1866
1865
1865
1873
1881
1872
1879
1882
1884
1882
1886
1863
1887
1901
1904
1915
1909
1906
1927
1930
1933
1926
1932
1935
1936
1949
1939
1936
1934
1930
1954
1959
1949
1943
1957
1975
1975
1975
1977
1978
1981
1987
1975
1983
1993
1982
1973
1979
1987
1990
1999
2001
1994
1983
1980
1989
1991
1992
1984
1989
2003
1996
2014
2036
2019
2027
2061
2094
2114
2134
2127
2087
2061
2032
1975
1954
1941
1937
1946
1963
1968
1965
1933
1921
1936
1965
1929
1855
1808
1809
1949
2304
2838
3439
3094
2622
2317
2075
1931
1929
1914
1882
1866
1861
1865
1873
1868
1872
1887
1891
1903
1892
1891
1887
1904
1931
1936
1927
1939
1962
1984
1997
1985
2013
2032
2018
2062
2096
2100
2102
2110
2113
2119
2127
2082
2029
1988
1946
1910
1881
1853
1827
1818
1820
1821
1810
1817
1815
1826
1819
1822
1820
1823
1821
1831
1840
1846
1851
1852
1849
1831
1845
1844
1861
1871
1857
1849
1855
1870
1853
1856
1866
1869
1851
1850
1850
1851
1865
1872
1873
1871
1871
1862
1873
1869
1865
1885
1869
1853
1879
1889
1865
1871
1867
1861
1874
1906
1905
1917
1926
1951
1999
2019
2029
1988
1969
1943
1882
1842
1859
1850
1830
1836
1839
1827
1840
1828
1811
1835
1842
1840
1797
1710
1727
1837
2151
2726
3212
2905
2474
2208
1995
1840
1807
1815
1815
1775
1776
1777
1755
1764
1779
1787
1796
1790
1742
1821
1826
1834
1840
1834
1854
1840
1843
1879
1909
1904
1900
1948
1970
1962
1978
2006
2025
2011
1994
1982
1969
1959
1923
1846
1833
1822
1790
1746
1728
1723
1712
1717
1727
1727
1728
1745
1719
1725
1738
1755
1756
1766
1771
1762
1764
1765
1763
1786
1771
1762
1776
1782
1781
1803
1794
1762
1766
1776
1763
1767
1773
1776
1790
1809
1799
1782
1792
1792
1805
1813
1809
1797
1793
1803
1807
1837
1856
1849
1853
1875
1924
1959
1974
1954
1927
1899
1840
1796
1792
1788
1798
1786
1774
1776
1792
1777
1776
1801
1816
1831
1777
1699
1664
1745
2029
2462
3023
3024
2527
2264
2066
1871
1814
1805
1806
1781
1776
1786
1782
1784
1794
1799
1811
1837
1833
1841
1856
1862
1865
1867
1890
1904
1907
1941
1959
1963
1974
1987
2016
2053
2064
2078
2099
2096
2095
2090
2063
2020
1998
1970
1924
1895
1878
1855
1828
1824
1814
1820
1825
1824
1824
1831
1834
1839
1853
1855
1861
1861
1863
1861
1882
1885
1887
1888
1903
1906
1907
1917
1923
1922
1921
1935
1936
1920
1918
1918
1931
1936
1939
1946
1953
1947
1945
1955
1949
1926
1938
1913
1959
1973
1968
1967
1971
1982
1982
1979
1967
1968
1973
1984
1984
2015
2027
2022
2025
2047
2085
2122
2148
2134
2105
2064
2015
1960
1935
1942
1926
1922
1918
1916
1919
1935
1926
1923
1920
1923
1913
1834
1778
1813
2009
2437
3005
3473
2897
2450
2181
1955
1893
1891
1885
1842
1819
1839
1834
1840
1852
1853
1853
1858
1857
1860
1883
1904
1899
1901
1911
1921
1937
1946
1959
1975
1999
2000
2013
2033
2053
2065
2096
2110
2105
2099
2098
2061
2021
1982
1942
1902
1856
1810
1796
1805
1796
1779
1789
1787
1782
1790
1803
1791
1791
1808
1799
1807
1818
1814
1834
1835
1817
1822
1831
1833
1833
1840
1826
1830
1841
1838
1806
1827
1832
1835
1844
1862
1853
1843
1837
1853
1843
1845
1842
1849
1860
1856
1852
1868
1865
1862
1872
1866
1870
1861
1879
1877
1866
1871
1863
1861
1872
1874
1874
1871
1867
1861
1869
1872
1874
1870
1870
1870
1870
1870
1857
1868
1875
1872
1879
1892
1893
1877
1845
1882
1862
1886
1893
1895
1879
1890
1874
1889
1884
1886
1877
1890
1885
1877
1886
1891
1902
1894
1894
1877
1875
1887
1877
1883
1889
1889
1884
1890
1885
1903
1917
1920
1936
1947
1971
1978
1981
1962
1913
1882
1854
1829
1825
1831
1807
1831
1838
1826
1824
1826
1830
1835
1808
1792
1676
1755
1991
2464
3113
3456
2765
2263
1982
1857
1843
1826
1797
1771
1773
1772
1763
1763
1776
1792
1793
1797
1802
1812
1829
1824
1841
1854
1853
1886
1904
1895
1904
1936
1937
1951
1989
2014
2028
2057
2070
2064
2086
2097
2096
2071
2043
1991
1940
1905
1871
1851
1835
1813
1803
1791
1805
1806
1805
1805
1809
1827
1846
1854
1858
1859
1863
1872
1886
1878
1879
1882
1887
1901
1905
1920
1920
1910
1920
1918
1916
1934
1939
1939
1936
1935
1963
1968
1966
1973
1968
1979
1972
1985
1990
1985
1998
2000
2000
2010
2007
2019
2032
2032
2022
2027
2039
2030
2031
2032
2035
2033
2038
2041
2055
2054
2035
2032
2061
2061
2055
2058
2064
2062
2061
2062
2045
2047
2066
2070
2065
2061
2064
2060
2062
2065
2071
2065
2064
2059
2070
2080
2077
2083
2065
2063
2069
2064
2058
2073
2082
2096
2107
2126
2116
2125
2159
2173
2139
2099
2057
2016
2013
2000
1985
1984
1985
1982
1982
1980
1975
1976
1973
1968
1927
1846
1807
1904
2245
2816
3566
3440
2746
2319
2064
1975
1958
1921
1883
1856
1847
1849
1855
1855
1872
1872
1856
1875
1897
1891
1889
1904
1891
1894
1917
1934
1945
1949
1968
1983
1998
2011
2029
2045
2039
2089
2102
2114
2116
2123
2117
2076
2037
1989
1920
1872
1863
1838
1806
1794
1782
1792
1792
1774
1785
1792
1802
1790
1798
1828
1808
1803
1817
1809
1815
1841
1839
1835
1836
1836
1830
1837
1840
1843
1854
1866
1850
1839
1856
1851
1846
1854
1842
1829
1847
1845
1856
1856
1856
1847
1840
1862
1843
1854
1870
1872
1882
1870
1851
1857
1871
1874
1856
1872
1875
1891
1888
1868
1856
1866
1868
1867
1883
1856
1851
1861
1872
1853
1847
1870
1878
1858
1851
1856
1859
1866
1855
1846
1867
1869
1856
1841
1842
1862
1859
1875
1901
1936
1969
1983
1983
2032
2073
2053
2012
1974
1959
1935
1915
1915
1917
1949
1904
1895
1888
1890
1897
1851
1862
1856
1808
1760
1754
1901
2262
2891
3319
2879
2466
2192
1977
1869
1846
1838
1809
1807
1787
1785
1789
1793
1789
1808
1810
1808
1808
1814
1824
1809
1836
1846
1847
1841
1862
1873
1885
1907
1936
1954
1957
1969
1968
2004
2017
2007
2019
2013
1991
1977
1949
1905
1866
1810
1785
1769
1749
1729
1706
1709
1726
1744
1744
1744
1737
1749
1783
1766
1748
1783
1793
1775
1765
1781
1776
1776
1795
1803
1787
1780
1808
1793
1792
1795
1801
1809
1791
1781
1785
1785
1790
1797
1815
1817
1808
1787
1786
1806
1803
1802
1808
1801
1778
1799
1808
1808
1811
1808
1808
1808
1811
1797
1802
1808
1808
1820
1842
1837
1835
1861
1902
1927
1946
1943
1913
1889
1870
1821
1794
1788
1766
1769
1778
1776
1762
1763
1767
1766
1766
1790
1783
1726
1641
1651
1760
2052
2513
3151
2939
2469
2223
1968
1802
1759
1763
1741
1728
1726
1726
1737
1737
1733
1731
1744
1775
1766
1763
1776
1787
1798
1821
1812
1812
1838
1833
1844
1874
1901
1915
1936
1955
1962
1968
1984
1995
2007
2005
1970
1936
1903
1854
1811
1792
1758
1728
1726
1706
1689
1692
1709
1699
1712
1718
1713
1717
1712
1725
1730
1741
1734
1738
1743
1741
1738
1744
1744
1757
1776
1773
1763
1774
1777
1728
1757
1773
1789
1786
1787
1776
1789
1780
1790
1777
1802
1809
1808
1808
1808
1809
1825
1824
1810
1822
1826
1829
1835
1840
1815
1817
1809
1822
1837
1854
1883
1834
1840
1842
1840
1831
1840
1847
1840
1846
1845
1872
1859
1859
1856
1856
1854
1856
1872
1872
1863
1856
1861
1861
1856
1866
1886
1917
1926
1925
1953
1974
1990
2000
1978
1921
1887
1874
1858
1840
1837
1840
1837
1831
1840
1837
1840
1843
1835
1843
1825
1742
1686
1734
1969
2427
3027
3498
2816
2342
2058
1872
1846
1835
1821
1809
1795
1777
1785
1786
1794
1801
1808
1809
1821
1841
1840
1829
1850
1855
1856
1872
1892
1899
1900
1909
1936
1955
1986
2000
2016
2032
2045
2064
2070
2077
2073
2043
2005
1956
1910
1872
1810
1789
1767
1751
1746
1741
1739
1741
1754
1744
1743
1751
1757
1746
1758
1763
1776
1773
1774
1766
1776
1781
1787
1783
1781
1786
1792
1814
1813
1818
1814
1808
1808
1819
1810
1806
1805
1814
1809
1826
1832
1826
1826
1837
1841
1850
1849
1856
1853
1850
1840
1841
1840
1857
1859
1851
1841
1843
1854
1861
1871
1863
1866
1856
1861
1869
1867
1861
1864
1862
1869
1878
1879
1878
1874
1873
1885
1879
1933
1885
1882
1885
1903
1890
1889
1886
1881
1891
1889
1878
1889
1902
1888
1895
1906
1899
1887
1897
1899
1903
1915
1934
1936
1958
1971
1993
2032
2026
1996
1959
1920
1893
1877
1870
1859
1843
1840
1840
1853
1857
1856
1845
1859
1854
1806
1734
1695
1770
2112
2652
3329
3504
2710
2257
1987
1889
1862
1824
1808
1789
1778
1776
1788
1793
1797
1791
1786
1798
1808
1819
1829
1840
1850
1853
1866
1869
1886
1915
1919
1921
1955
1973
1980
2001
2021
2033
2064
2080
2100
2094
2077
2046
2011
1963
1915
1867
1826
1806
1776
1748
1738
1741
1749
1750
1742
1744
1759
1771
1764
1761
1771
1780
1791
1783
1783
1792
1775
1806
1810
1817
1813
1811
1817
1811
1809
1809
1817
1825
1831
1826
1834
1837
1837
1837
1846
1851
1861
1850
1845
1855
1830
1902
1866
1891
1863
1856
1862
1849
1903
1856
1866
1873
1874
1886
1874
1872
1875
1894
1895
1897
1895
1894
1904
1904
1893
1896
1903
1899
1908
1909
1918
1921
1916
1917
1913
1918
1921
1915
1921
1920
1930
1933
1930
1917
1920
1934
1919
1936
1938
1935
1936
1950
1957
1970
1998
2000
2026
2054
2082
2092
2075
2047
1985
1969
1943
1924
1920
1923
1911
1911
1906
1907
1905
1909
1917
1919
1926
1871
1783
1761
1874
2196
2774
3537
3451
2754
2323
2059
1936
1923
1895
1877
1873
1859
1840
1839
1854
1863
1873
1880
1883
1902
1911
1918
1940
1930
1920
1936
1960
1968
1986
2000
2032
2057
2073
2096
2105
2128
2158
2187
2186
2199
2192
2187
2160
2112
2064
2013
1978
1930
1902
1889
1875
1860
1851
1846
1854
1858
1857
1867
1871
1862
1881
1901
1907
1904
1898
1899
1886
1905
1909
1907
1935
1921
1922
1926
1923
1909
1920
1929
1929
1926
1927
1921
1930
1923
1923
1927
1910
1911
1926
1956
1949
1925
1947
1936
1933
1936
1943
1929
1919
1936
1937
1936
1938
1933
1934
1955
1954
1938
1933
1931
1930
1941
1945
1950
1951
1949
1963
1973
1982
1989
1980
2005
2064
2075
2089
2087
2042
1994
1943
1927
1917
1909
1918
1904
1891
1899
1904
1901
1872
1875
1898
1904
1803
1744
1763
1898
2318
2847
3315
2957
2489
2262
2029
1871
1856
1859
1853
1833
1803
1819
1821
1840
1839
1824
1840
1840
1853
1867
1877
1858
1866
1879
1909
1891
1885
1930
1950
1949
1979
2000
2007
2007
2042
2042
2065
2074
2076
2080
2033
1995
1977
1934
1874
1846
1837
1809
1786
1776
1771
1766
1759
1760
1754
1759
1766
1772
1785
1795
1804
1790
1781
1783
1819
1829
1813
1792
1805
1809
1808
1823
1794
1799
1823
1823
1838
1846
1838
1815
1834
1855
1846
1835
1838
1850
1853
1872
1853
1875
1874
1872
1900
1904
1907
1935
1978
2009
2032
2032
1998
1960
1911
1886
1877
1872
1869
1879
1870
1861
1862
1870
1871
1887
1906
1891
1875
1819
1765
1803
1970
2346
2909
3309
2865
2511
2274
2064
1931
1929
1920
1905
1904
1907
1899
1919
1933
1930
1950
1963
1968
1980
1959
1969
2007
2001
2013
2011
2035
2046
2066
2091
2090
2112
2162
2181
2178
2182
2217
2230
2225
2222
2204
2183
2169
2117
2064
2037
2020
1987
1965
1962
1968
1951
1927
1935
1954
1953
1959
1968
1969
1975
1968
1968
1958
1978
1987
1984
1982
2003
2018
1986
1965
1972
1987
2000
1984
2000
2013
1984
1986
1984
1978
1964
1970
1985
1998
1981
1979
1983
2015
2055
2011
2007
2041
2075
2112
2129
2099
2069
2064
2017
1963
1929
1933
1922
1899
1889
1879
1878
1904
1883
1873
1885
1872
1878
1847
1759
1743
1855
2139
2566
3190
3052
2539
2298
2075
1888
1847
1841
1811
1813
1799
1776
1771
1788
1799
1793
1801
1823
1809
1819
1837
1830
1817
1808
1829
1854
1878
1879
1878
1903
1922
1920
1962
1981
1968
1978
1993
2013
2028
2002
1953
1937
1919
1863
1811
1793
1773
1747
1711
1712
1713
1698
1696
1712
1712
1711
1708
1733
1734
1731
1732
1746
1742
1744
1753
1757
1776
1774
1763
1771
1796
1795
1759
1768
1763
1760
1773
1775
1765
1771
1774
1774
1776
1787
1770
1776
1792
1791
1781
1793
1797
1806
1797
1791
1808
1830
1830
1831
1864
1920
1936
1951
1937
1904
1857
1829
1792
1746
1737
1737
1743
1747
1730
1741
1745
1745
1750
1758
1757
1734
1659
1616
1645
1833
2326
2894
3207
2701
2257
2023
1809
1730
1727
1734
1732
1712
1703
1699
1701
1701
1719
1717
1726
1735
1739
1746
1745
1758
1780
1792
1789
1776
1825
1806
1822
1853
1863
1889
1906
1923
1936
1951
1967
1961
1965
1950
1930
1893
1830
1792
1762
1718
1698
1688
1680
1678
1674
1684
1679
1674
1674
1693
1697
1703
1712
1709
1709
1712
1712
1718
1739
1733
1754
1747
1761
1761
1758
1764
1744
1747
1761
1774
1774
1776
1778
1773
1762
1763
1760
1771
1778
1778
1787
1806
1791
1801
1801
1791
1749
1810
1814
1810
1822
1820
1819
1837
1823
1823
1829
1840
1839
1840
1840
1835
1826
1829
1818
1833
1838
1840
1840
1847
1841
1837
1847
1840
1840
1854
1842
1837
1850
1855
1853
1862
1867
1863
1869
1870
1862
1863
1876
1874
1856
1853
1866
1818
1865
1858
1862
1863
1871
1872
1877
1883
1879
1874
1879
1872
1867
1877
1875
1879
1890
1873
1868
1872
1881
1877
1873
1876
1877
1902
1931
1961
1979
1994
1955
1941
1949
1920
1883
1875
1872
1856
1869
1874
1872
1870
1873
1866
1866
1872
1819
1744
1727
1812
2163
2704
3376
3435
2625
2204
1971
1905
1885
1844
1825
1776
1806
1806
1808
1807
1823
1823
1821
1826
1843
1841
1856
1866
1871
1885
1893
1891
1887
1908
1919
1936
1955
1973
1987
2011
2038
2045
2052
2074
2087
2098
2090
2064
2020
1991
1909
1904
1840
1829
1808
1795
1762
1750
1756
1761
1767
1776
1789
1797
1792
1807
1814
1794
1823
1824
1817
1829
1840
1826
1824
1840
1840
1829
1842
1835
1843
1842
1847
1845
1859
1855
1835
1843
1856
1846
1858
1861
1862
1865
1863
1859
1867
1878
1872
1878
1878
1886
1882
1878
1891
1893
1894
1886
1884
1890
1899
1897
1892
1890
1872
1872
1887
1881
1904
1901
1902
1889
1890
1906
1904
1897
1894
1886
1886
1934
1902
1895
1887
1898
1901
1904
1895
1902
1904
1904
1885
1893
1898
1902
1906
1895
1883
1887
1895
1903
1903
1904
1904
1914
1909
1897
1895
1903
1898
1904
1922
1903
1895
1967
1919
1946
1967
1990
1992
1965
1954
1941
1917
1901
1874
1872
1886
1873
1872
1909
1838
1866
1872
1878
1871
1850
1762
1712
1769
2022
2512
3216
3602
2864
2343
2047
1915
1901
1871
1843
1808
1808
1791
1787
1796
1814
1814
1815
1834
1825
1846
1860
1855
1855
1875
1885
1897
1904
1914
1930
1949
1971
1975
2005
2038
2042
2066
2092
2110
2112
2111
2097
2070
2057
2001
1957
1902
1863
1820
1799
1791
1775
1778
1776
1777
1778
1789
1787
1795
1801
1804
1791
1813
1825
1817
1821
1819
1826
1840
1849
1840
1857
1845
1837
1854
1861
1851
1850
1856
1841
1840
1846
1859
1871
1877
1858
1856
1854
1877
1875
1872
1874
1867
1872
1890
1902
1903
1897
1897
1902
1902
1906
1904
1902
1899
1911
1934
1934
1911
1915
1922
1922
1921
1920
1925
1930
1936
1927
1926
1930
1936
1943
1950
1946
1934
1937
1934
1936
1950
1954
1957
1941
1943
1943
1949
1939
1936
1957
1977
1965
1965
1965
1968
1966
1959
1968
1971
1975
1987
2000
2001
2042
2086
2102
2106
2086
2041
2000
1957
1939
1938
1919
1904
1904
1905
1890
1894
1887
1886
1887
1895
1861
1784
1750
1839
2147
2631
3231
3174
2630
2310
2083
1902
1872
1874
1867
1846
1821
1826
1825
1813
1829
1839
1898
1859
1870
1871
1875
1899
1903
1896
1901
1931
1931
1955
1957
1963
1984
2004
2018
2046
2064
2097
2101
2102
2114
2112
2095
2069
2037
2001
1958
1906
1866
1836
1807
1790
1783
1805
1792
1788
1778
1776
1805
1808
1793
1803
1794
1810
1817
1811
1815
1823
1836
1835
1832
1840
1841
1839
1842
1833
1840
1855
1854
1854
1859
1871
1868
1854
1871
1869
1810
1870
1871
1872
1887
1899
1866
1875
1866
1883
1894
1894
1883
1872
1874
1904
1917
1919
1932
1956
1963
1972
2032
2076
2064
2027
2003
1969
1935
1938
1907
1889
1897
1884
1879
1893
1893
1886
1889
1904
1904
1903
1855
1782
1783
1919
2236
2714
3269
3038
2574
2350
2166
1959
1919
1936
1930
1919
1911
1919
1915
1933
1950
1952
1940
1955
1970
1988
2001
1974
1995
2027
2041
2070
2084
2088
2118
2144
2129
2146
2191
2226
2255
2256
2242
2250
2257
2267
2255
2207
2159
2124
2096
2065
2001
1998
1999
1982
1964
1968
1979
1968
1968
1984
1968
1985
2004
2001
2006
2000
1974
2000
2018
2039
2034
2034
2013
2015
2038
2032
2030
2064
2041
2032
2043
2055
2034
2039
2032
2010
2021
2032
2023
2037
2032
2027
2019
2019
2015
2041
2062
2054
2062
2064
2090
2143
2170
2167
2085
2119
2093
2031
1993
1967
1943
1939
1968
1934
1934
1945
1936
1932
1941
1905
1927
1920
1846
1787
1808
1919
2335
2858
3239
2841
2466
2252
2030
1883
1871
1871
1859
1855
1840
1823
1818
1838
1840
1851
1845
1856
1863
1870
1874
1872
1859
1872
1894
1906
1892
1904
1926
1951
1953
1983
2005
2023
2033
2046
2060
2064
2045
2028
2000
1945
1906
1875
1844
1795
1766
1766
1759
1745
1734
1732
1731
1739
1738
1742
1734
1729
1739
1750
1750
1766
1761
1750
1745
1757
1749
1766
1776
1773
1773
1776
1789
1801
1767
1777
1786
1790
1777
1766
1771
1777
1778
1776
1782
1793
1797
1785
1807
1793
1791
1785
1794
1805
1797
1802
1786
1777
1792
1811
1826
1855
1869
1863
1890
1941
1947
1959
1927
1893
1867
1821
1776
1754
1768
1759
1758
1763
1751
1735
1743
1749
1759
1754
1745
1690
1629
1621
1710
2067
2568
3127
3057
2447
2125
1899
1744
1717
1737
1723
1703
1685
1707
1697
1699
1711
1727
1727
1729
1750
1746
1755
1774
1776
1779
1794
1789
1807
1833
1837
1841
1874
1895
1913
1929
1953
1962
1977
1998
2003
1989
1963
1921
1879
1840
1790
1749
1722
1705
1680
1680
1674
1665
1682
1691
1686
1696
1699
1690
1702
1705
1714
1719
1733
1731
1733
1740
1751
1747
1747
1753
1762
1776
1783
1782
1776
1779
1770
1778
1791
1794
1778
1784
1783
1791
1792
1798
1793
1796
1815
1808
1806
1808
1776
1809
1826
1821
1826
1825
1819
1823
1831
1840
1831
1840
1841
1853
1841
1840
1842
1846
1850
1840
1840
1856
1857
1854
1845
1855
1867
1871
1866
1862
1863
1871
1869
1824
1879
1876
1884
1883
1886
1901
1891
1906
1861
1893
1885
1890
1909
1903
1904
1906
1910
1904
1911
1920
1923
1927
1909
1922
1933
1936
1930
1930
1945
1936
1933
1943
1949
1974
2000
2016
2011
2025
2051
2055
2035
2015
1965
1937
1939
1927
1936
1938
1920
1925
1926
1925
1921
1926
1935
1930
1870
1803
1805
2000
2405
3019
3691
3226
2496
2161
1987
1953
1933
1914
1959
1883
1873
1863
1867
1822
1882
1898
1893
1904
1909
1908
1922
1933
1954
1967
1978
1983
2000
2003
2019
2039
2054
2073
2106
2129
2128
2135
2162
2187
2187
2192
2176
2157
2126
2065
2027
1984
1927
1903
1890
1869
1855
1842
1843
1835
1846
1861
1869
1871
1872
1872
1888
1899
1890
1898
1906
1904
1910
1905
1914
1917
1924
1920
1921
1915
1919
1907
1918
1924
1913
1914
1911
1911
1929
1923
1904
1913
1923
1931
1928
1929
1938
1931
1935
1937
1936
1931
1951
1947
1947
1942
1931
1933
1934
1941
1945
1927
1937
1933
1935
1947
1944
1938
1936
1933
1936
1943
1946
1946
1949
1938
1939
1943
1936
1934
1938
1934
1942
1951
1936
1924
1923
1933
1930
1923
1929
1936
1938
1934
1930
1922
1922
1923
1929
1936
1935
1937
1975
1991
1979
1997
2029
2037
2017
1984
1939
1911
1903
1879
1874
1875
1872
1872
1861
1861
1862
1872
1870
1863
1843
1776
1728
1734
1929
2373
3137
3623
2979
2414
2037
1883
1857
1838
1811
1785
1769
1771
1759
1763
1781
1790
1794
1786
1778
1781
1807
1813
1808
1817
1840
1841
1867
1881
1871
1895
1919
1921
1952
1966
1977
1988
2003
2019
2045
2044
2019
2000
1973
1927
1866
1833
1798
1748
1735
1712
1699
1698
1698
1705
1712
1712
1706
1703
1699
1712
1728
1728
1742
1751
1762
1759
1763
1762
1766
1764
1749
1759
1759
1769
1772
1771
1764
1773
1776
1773
1792
1799
1788
1791
1787
1792
1797
1798
1790
1737
1770
1789
1796
1808
1808
1803
1798
1798
1805
1814
1815
1809
1809
1813
1821
1827
1827
1822
1817
1821
1838
1808
1806
1816
1823
1894
1831
1834
1840
1842
1833
1839
1848
1844
1847
1852
1845
1856
1854
1847
1877
1893
1881
1899
1911
1937
1966
1982
1950
1913
1872
1838
1835
1827
1826
1826
1835
1830
1819
1844
1856
1825
1805
1825
1776
1703
1712
1809
2123
2641
3269
2982
2510
2258
1986
1841
1839
1821
1787
1788
1787
1794
1792
1776
1794
1819
1818
1815
1818
1818
1832
1837
1849
1855
1860
1882
1885
1903
1942
1938
1935
1969
1978
1994
2030
2058
2070
2081
2075
2055
2033
2019
1973
1933
1905
1853
1825
1813
1764
1761
1779
1753
1744
1776
1779
1766
1758
1776
1776
1776
1781
1783
1806
1795
1808
1808
1815
1803
1818
1827
1818
1815
1845
1837
1828
1808
1818
1843
1861
1839
1839
1834
1850
1851
1855
1852
1841
1861
1875
1855
1837
1840
1859
1854
1863
1869
1856
1854
1870
1886
1904
1920
1935
1938
1942
1968
1994
1983
1915
1904
1874
1851
1826
1845
1856
1837
1833
1819
1820
1822
1846
1842
1830
1839
1769
1719
1745
1856
2251
2779
3215
2864
2411
2194
2002
1847
1824
1830
1809
1809
1795
1797
1803
1808
1788
1808
1840
1838
1825
1851
1834
1840
1853
1859
1879
1877
1878
1902
1926
1937
1943
1959
1989
2023
2030
2030
2032
2044
2034
2021
2005
1970
1932
1904
1854
1808
1781
1789
1776
1754
1762
1747
1739
1739
1744
1749
1759
1758
1756
1754
1767
1794
1785
1782
1767
1781
1811
1805
1808
1808
1807
1806
1809
1837
1809
1806
1815
1798
1815
1813
1801
1802
1827
1823
1825
1813
1813
1833
1840
1830
1827
1840
1854
1858
1919
1881
1891
1920
1982
2006
1986
1962
1941
1945
1877
1849
1822
1813
1808
1795
1792
1792
1805
1813
1803
1797
1808
1813
1780
1712
1682
1703
1903
2304
2853
3226
2688
2329
2122
1920
1809
1782
1785
1780
1763
1759
1749
1751
1759
1769
1768
1782
1802
1798
1819
1829
1831
1839
1859
1863
1866
1872
1901
1905
1925
1948
1969
1986
2005
2014
2027
2045
2055
2041
2032
2000
1968
1922
1875
1840
1795
1779
1746
1738
1742
1739
1744
1747
1744
1747
1755
1754
1756
1776
1791
1769
1763
1775
1793
1798
1792
1795
1808
1808
1799
1805
1815
1819
1821
1825
1817
1827
1825
1811
1815
1838
1838
1829
1838
1841
1840
1845
1837
1838
1858
1856
1840
1840
1854
1859
1842
1846
1842
1855
1861
1857
1859
1867
1863
1856
1859
1856
1842
1856
1867
1867
1855
1863
1866
1856
1863
1869
1867
1874
1863
1899
1875
1873
1872
1878
1904
1918
1925
1933
1984
2026
2022
2011
1991
1962
1920
1881
1854
1831
1838
1790
1846
1826
1819
1827
1817
1823
1839
1833
1833
1760
1694
1709
1922
2327
2892
3455
2933
2351
2047
1872
1830
1825
1806
1785
1771
1767
1776
1787
1792
1798
1796
1808
1821
1827
1831
1836
1846
1859
1872
1876
1890
1913
1919
1941
1991
1970
1987
2026
2045
2063
2064
2081
2095
2104
2105
2075
2033
1996
1938
1905
1856
1834
1823
1802
1774
1754
1749
1761
1776
1781
1772
1771
1779
1795
1804
1803
1808
1807
1808
1809
1821
1825
1819
1815
1817
1831
1831
1826
1829
1833
1831
1835
1840
1833
1840
1845
1843
1856
1856
1851
1846
1840
1853
1863
1869
1852
1854
1860
1861
1871
1885
1871
1856
1866
1884
1888
1889
1887
1875
1884
1886
1888
1889
1894
1875
1881
1894
1893
1890
1895
1901
1893
1904
1886
1881
1901
1904
1894
1903
1903
1900
1904
1900
1901
1899
1907
1909
1904
1915
1917
1910
1910
1913
1915
1922
1911
1905
1910
1920
1950
1970
1936
1982
2019
2060
2073
2055
2027
1990
1943
1921
1890
1882
1878
1876
1876
1873
1872
1862
1870
1873
1869
1872
1827
1737
1712
1806
2111
2752
3454
3403
2689
2195
1959
1879
1867
1840
1809
1779
1777
1779
1793
1786
1787
1794
1801
1809
1817
1826
1837
1837
1851
1871
1884
1894
1914
1916
1920
1952
1968
1997
2022
2037
2055
2080
2092
2096
2105
2112
2095
2066
2025
1968
1926
1884
1840
1808
1795
1776
1776
1773
1774
1771
1772
1771
1776
1786
1792
1807
1808
1801
1798
1812
1831
1839
1837
1844
1837
1830
1851
1851
1848
1845
1851
1858
1867
1856
1851
1856
1864
1861
1869
1874
1866
1858
1866
1872
1867
1869
1877
1885
1891
1904
1904
1904
1891
1879
1893
1904
1912
1923
1907
1893
1893
1909
1911
1919
1925
1953
1922
1923
1933
1921
1920
1926
1929
1930
1923
1936
1938
1931
1935
1936
1946
1949
1949
1939
1939
1936
1939
1955
1953
1936
1940
1923
1937
1965
1969
1978
1991
1997
2018
2081
2112
2111
2079
2028
2000
1961
1936
1922
1931
1930
1918
1901
1903
1904
1904
1893
1882
1899
1907
1830
1771
1762
1911
2393
3007
3565
3052
2453
2166
1959
1894
1902
1881
1872
1859
1841
1825
1840
1859
1859
1867
1875
1872
1899
1892
1904
1917
1921
1921
1923
1938
1968
1968
1969
1998
2032
2064
2065
2087
2105
2125
2154
2163
2155
2145
2123
2100
2059
2016
1963
1924
1901
1884
1851
1826
1823
1810
1805
1809
1829
1842
1856
1857
1845
1841
1856
1854
1858
1870
1873
1870
1872
1877
1887
1885
1872
1883
1893
1889
1894
1881
1875
1881
1893
1835
1883
1885
1892
1894
1879
1895
1901
1904
1931
1915
1872
1874
1897
1904
1906
1911
1897
1903
1920
1920
1918
1922
1916
1909
1929
1941
1947
1950
1977
2009
2037
2062
2047
2041
2009
1946
1914
1903
1875
1873
1877
1887
1882
1869
1857
1858
1866
1879
1875
1865
1779
1730
1775
1946
2403
2976
3312
2787
2372
2173
1961
1868
1859
1843
1828
1812
1817
1838
1834
1833
1826
1826
1830
1840
1845
1870
1869
1872
1877
1890
1903
1917
1920
1939
1957
1968
1975
1987
2027
2059
2083
2081
2054
2081
2096
2070
2045
2014
1955
1909
1873
1842
1815
1790
1789
1780
1793
1786
1777
1779
1776
1766
1773
1780
1799
1805
1793
1790
1797
1818
1829
1838
1837
1828
1826
1840
1840
1834
1830
1831
1833
1842
1853
1840
1832
1840
1835
1824
1827
1838
1835
1824
1834
1842
1837
1840
1825
1825
1840
1850
1843
1842
1843
1837
1857
1875
1897
1875
1937
1982
2017
2012
1958
1952
1913
1867
1834
1837
1822
1803
1808
1810
1805
1809
1821
1829
1844
1828
1821
1765
1684
1669
1790
2097
2570
3141
3011
2505
2241
2030
1839
1808
1798
1790
1772
1772
1767
1763
1779
1783
1779
1786
1803
1799
1808
1814
1835
1849
1844
1872
1867
1875
1886
1894
1936
1945
1962
1974
2000
2014
2038
2054
2052
2057
2037
2019
1974
1947
1898
1844
1795
1776
1763
1747
1745
1734
1737
1736
1712
1717
1735
1738
1742
1744
1741
1755
1758
1754
1764
1776
1789
1783
1789
1786
1792
1797
1794
1779
1794
1795
1791
1803
1807
1802
1808
1822
1807
1808
1815
1814
1815
1824
1808
1814
1815
1825
1835
1840
1835
1825
1835
1841
1840
1850
1854
1849
1849
1856
1856
1859
1858
1849
1859
1867
1855
1856
1872
1879
1875
1873
1878
1873
1872
1904
1911
1917
1932
1947
1985
2032
2027
2013
1986
1953
1909
1877
1857
1841
1846
1847
1831
1826
1833
1831
1840
1853
1855
1843
1829
1751
1689
1744
1984
2458
3218
3500
2800
2288
1967
1861
1851
1847
1809
1803
1803
1792
1795
1805
1807
1817
1827
1845
1842
1830
1846
1849
1859
1878
1887
1907
1929
1927
1952
1973
1994
2010
2032
2061
2074
2098
2111
2128
2134
2150
2128
2107
2065
2000
1954
1915
1874
1843
1829
1810
1786
1787
1793
1786
1797
1801
1806
1795
1821
1825
1840
1846
1840
1840
1856
1862
1847
1856
1866
1869
1872
1865
1872
1876
1872
1869
1883
1888
1879
1877
1881
1868
1890
1902
1904
1886
1891
1896
1895
1897
1942
1904
1916
1906
1904
1904
1911
1909
1904
1924
1923
1918
1917
1930
1922
1929
1920
1927
1923
1925
1916
1924
1918
1913
1922
1932
1907
1918
1922
1920
1918
1923
1933
1918
1925
1923
1911
1921
1936
1940
1954
1968
1978
2026
2077
2081
2071
2046
2002
1964
1936
1895
1874
1872
1875
1890
1871
1865
1863
1885
1887
1871
1874
1855
1773
1708
1764
1986
2499
3215
3565
2850
2331
2033
1904
1888
1856
1818
1801
1793
1790
1793
1808
1814
1813
1820
1823
1843
1856
1856
1847
1865
1863
1878
1902
1919
1921
1943
1967
1979
2003
2017
2062
2087
2096
2114
2128
2139
2130
2119
2093
2043
2064
1953
1905
1849
1823
1811
1799
1797
1795
1787
1783
1798
1802
1799
1764
1813
1812
1835
1839
1844
1859
1867
1863
1854
1869
1861
1872
1881
1879
1883
1898
1890
1897
1895
1906
1895
1904
1902
1901
1915
1920
1918
1922
1936
1938
1942
1947
1940
1954
1977
1958
1958
1961
1973
1978
1978
1985
1985
1995
2001
1997
2007
2016
2010
2003
2031
2016
2000
1997
1995
2003
2031
2014
2027
2037
2035
2025
2009
2019
2027
2033
2042
2047
2044
2043
2058
2069
2085
2093
2102
2150
2176
2185
2192
2163
2139
2107
2061
2012
2016
2019
2000
1998
1991
1983
1978
1985
1990
1998
2001
1961
1875
1842
1895
2134
2596
3216
3498
2799
2438
2187
1995
1958
1951
1933
1925
1919
1907
1895
1888
1897
1916
1927
1926
1931
1936
1929
1933
1932
1942
1958
1968
1974
1993
2001
2007
2017
2033
2059
2094
2113
2112
2117
2127
2128
2126
2123
2103
2053
2000
1968
1933
1903
1863
1835
1795
1787
1787
1769
1785
1765
1771
1787
1779
1784
1786
1790
1786
1803
1821
1806
1794
1814
1808
1801
1808
1803
1819
1815
1813
1800
1808
1822
1826
1816
1823
1822
1822
1819
1808
1807
1809
1819
1829
1837
1838
1825
1827
1840
1856
1847
1824
1839
1869
1873
1875
1895
1912
1946
1973
1991
1968
1934
1918
1893
1837
1811
1803
1805
1809
1801
1791
1799
1809
1797
1804
1815
1823
1786
1707
1668
1727
2015
2466
3028
3120
2544
2263
2045
1845
1781
1789
1790
1773
1758
1759
1755
1767
1770
1774
1779
1793
1794
1792
1790
1801
1822
1831
1834
1843
1854
1877
1897
1905
1925
1939
1961
1987
1998
2003
2033
2045
2059
2053
2023
1985
1944
1904
1865
1831
1789
1772
1763
1758
1750
1755
1757
1766
1755
1748
1760
1759
1766
1771
1776
1804
1815
1806
1807
1811
1827
1818
1815
1826
1846
1851
1855
1843
1839
1846
1849
1861
1859
1849
1854
1827
1865
1870
1879
1873
1877
1889
1891
1904
1897
1916
1954
1984
1974
1962
1970
1981
1979
1982
1986
1986
1998
1998
2014
2035
2045
2035
2065
2114
2144
2148
2138
2115
2063
2019
1979
1965
1955
1963
1946
1958
1952
1935
1938
1961
1957
1953
1947
1905
1837
1815
1888
2140
2704
3334
3341
2742
2357
2121
1963
1934
1919
1904
1901
1885
1899
1893
1889
1888
1909
1907
1915
1915
1920
1918
1922
1936
1941
1957
1968
1968
1989
2005
2006
2013
2053
2071
2093
2102
2126
2136
2147
2149
2135
2112
2093
2034
1990
1952
1904
1871
1850
1836
1821
1811
1793
1797
1815
1822
1808
1797
1801
1805
1815
1819
1825
1834
1841
1839
1841
1854
1854
1840
1854
1849
1844
1849
1854
1850
1856
1848
1854
1856
1867
1858
1857
1870
1854
1863
1859
1856
1859
1872
1866
1856
1851
1857
1857
1862
1855
1854
1872
1858
1867
1863
1856
1855
1861
1865
1856
1861
1871
1862
1859
1872
1874
1873
1887
1874
1874
1879
1878
1874
1874
1874
1869
1866
1865
1872
1871
1873
1877
1875
1904
1906
1904
1924
1961
1993
2015
2022
1995
1962
1911
1873
1841
1837
1828
1824
1811
1817
1808
1820
1826
1814
1809
1825
1821
1767
1679
1684
1833
2222
2896
3472
3051
2433
2019
1846
1810
1796
1778
1749
1737
1737
1733
1725
1734
1747
1757
1764
1763
1776
1783
1786
1779
1794
1819
1831
1840
1846
1855
1868
1889
1918
1943
1975
2010
1984
2021
2037
2043
2043
2039
2030
2000
1952
1893
1856
1818
1790
1747
1717
1707
1694
1697
1703
1710
1701
1710
1717
1739
1737
1728
1728
1744
1744
1754
1755
1757
1749
1763
1765
1766
1766
1761
1767
1767
1780
1776
1774
1781
1777
1774
1760
1776
1785
1787
1793
1776
1801
1795
1761
1808
1808
1804
1814
1820
1808
1810
1805
1808
1813
1811
1807
1808
1824
1829
1827
1837
1839
1826
1825
1817
1827
1835
1840
1815
1822
1839
1841
1839
1843
1841
1844
1840
1840
1834
1842
1850
1842
1847
1853
1862
1869
1872
1869
1870
1873
1872
1856
1861
1872
1872
1878
1881
1881
1883
1875
1872
1884
1901
1926
1935
1936
1952
1985
2022
2035
2025
2000
1968
1938
1906
1875
1872
1871
1866
1840
1856
1872
1867
1863
1861
1862
1856
1809
1733
1717
1850
2181
2749
3410
3133
2535
2205
1968
1872
1869
1839
1830
1815
1823
1814
1793
1797
1776
1824
1839
1854
1847
1857
1870
1889
1885
1904
1891
1898
1905
1920
1938
1979
1989
2013
2030
2040
2077
2110
2117
2112
2112
2124
2112
2078
2033
1993
1949
1904
1861
1825
1814
1797
1781
1763
1765
1757
1791
1802
1795
1781
1782
1799
1797
1788
1808
1825
1827
1792
1823
1838
1827
1831
1838
1833
1834
1837
1837
1830
1838
1840
1837
1840
1842
1840
1847
1835
1826
1842
1850
1854
1849
1856
1865
1851
1854
1857
1857
1859
1842
1858
1873
1863
1867
1874
1868
1860
1865
1872
1887
1886
1883
1879
1874
1872
1857
1886
1904
1904
1904
1923
1923
1931
1990
2022
2017
2007
1988
1934
1887
1873
1859
1853
1847
1840
1831
1829
1843
1843
1826
1817
1842
1840
1773
1693
1732
1859
2192
2811
3295
2917
2475
2209
1977
1841
1840
1840
1808
1790
1807
1806
1824
1835
1819
1835
1850
1861
1850
1862
1866
1878
1894
1879
1879
1902
1930
1936
1947
1954
1973
2000
2024
2035
2074
2097
2103
2096
2095
2095
2064
2027
1995
1936
1904
1874
1842
1821
1805
1801
1795
1807
1799
1792
1803
1799
1808
1827
1815
1821
1840
1833
1818
1835
1849
1841
1846
1852
1856
1867
1863
1854
1851
1847
1867
1859
1859
1870
1867
1874
1872
1874
1876
1872
1868
1862
1872
1883
1883
1872
1872
1882
1891
1894
1890
1894
1899
1893
1900
1901
1898
1904
1920
1936
1941
1953
1971
2010
2045
2059
2026
2001
1974
1933
1899
1870
1858
1852
1865
1855
1849
1854
1839
1854
1872
1867
1853
1795
1733
1712
1785
2082
2571
3169
3172
2551
2280
2064
1888
1845
1853
1825
1801
1793
1790
1789
1800
1799
1819
1835
1840
1844
1845
1840
1841
1865
1882
1899
1901
1904
1913
1919
1930
1951
1973
1997
2016
2040
2067
2076
2077
2081
2080
2047
2027
1972
1921
1889
1849
1810
1792
1767
1739
1755
1756
1745
1741
1746
1744
1761
1765
1750
1750
1755
1759
1762
1775
1787
1785
1790
1797
1798
1795
1776
1803
1807
1809
1824
1799
1808
1809
1802
1815
1827
1808
1821
1828
1834
1833
1831
1835
1835
1845
1809
1847
1843
1847
1840
1840
1839
1840
1853
1842
1846
1854
1863
1844
1851
1862
1856
1849
1859
1856
1854
1853
1857
1867
1874
1872
1858
1863
1872
1871
1872
1881
1875
1893
1907
1911
1962
1981
2000
2019
2014
1979
1943
1918
1879
1854
1839
1829
1832
1823
1835
1818
1822
1838
1827
1828
1825
1808
1728
1681
1731
1952
2423
3050
3388
2763
2288
2001
1840
1835
1814
1803
1777
1765
1763
1761
1777
1788
1797
1798
1795
1810
1808
1819
1840
1857
1853
1851
1867
1878
1902
1924
1919
1944
1974
1986
2003
2030
2055
2064
2070
2083
2093
2079
2041
2004
1968
1913
1852
1831
1791
1766
1741
1744
1744
1744
1743
1739
1739
1745
1760
1762
1762
1767
1776
1803
1806
1794
1794
1799
1797
1799
1813
1811
1809
1827
1829
1825
1840
1840
1830
1840
1840
1835
1831
1808
1837
1838
1855
1858
1815
1862
1857
1842
1853
1869
1869
1872
1871
1871
1872
1873
1871
1876
1883
1886
1886
1892
1888
1879
1882
1885
1886
1887
1889
1877
1888
1886
1886
1899
1898
1885
1883
1895
1902
1900
1907
1902
1898
1900
1905
1902
1911
1904
1895
1893
1895
1900
1894
1899
1894
1869
1905
1897
1899
1903
1904
1904
1913
1904
1895
1895
1901
1903
1899
1895
1893
1904
1911
1928
1949
1967
1959
1974
2015
2024
2018
1968
1927
1906
1883
1870
1845
1858
1858
1859
1855
1860
1859
1857
1866
1854
1811
1743
1696
1776
2069
2625
3428
3387
2704
2241
1955
1885
1871
1847
1809
1764
1761
1774
1776
1787
1798
1790
1804
1802
1808
1815
1824
1830
1843
1853
1867
1882
1875
1885
1899
1908
1936
1958
1986
2005
2029
2032
2053
2070
2078
2089
2079
2044
2006
1968
1905
1863
1822
1782
1757
1749
1731
1719
1734
1729
1730
1744
1723
1754
1766
1767
1763
1776
1792
1798
1792
1777
1796
1799
1848
1814
1810
1819
1834
1836
1834
1838
1840
1847
1846
1853
1858
1856
1843
1854
1858
1855
1863
1875
1875
1872
1881
1879
1887
1904
1904
1897
1904
1901
1895
1904
1906
1904
1904
1905
1909
1913
1919
1907
1914
1936
1919
1911
1924
1927
1936
1932
1919
1919
1931
1941
1922
1919
1930
1927
1923
1926
1939
1942
1934
1931
1934
1936
1918
1920
1938
1942
1947
1951
1947
1953
1996
2000
2000
2030
2068
2087
2073
2043
1984
1951
1937
1933
1904
1906
1905
1901
1899
1899
1904
1911
1911
1905
1874
1819
1781
1808
1955
2353
3024
3381
2859
2466
2192
1979
1909
1919
1883
