-6.265436929105797637e-01
-6.616224108752760680e-01
-6.365661837576358506e-01
-6.465886746046919376e-01
-6.616224108752760680e-01
-6.265436929105797637e-01
-6.616224108752760680e-01
-6.415774291811638941e-01
-5.964762203694113918e-01
-5.864537295223553048e-01
-5.764312386752992179e-01
-5.112850481694344307e-01
-4.962513118988503003e-01
-5.112850481694344307e-01
-4.862288210517942133e-01
-4.710570698116370858e-01
-4.710570698116370858e-01
-3.157084616822673495e-01
-2.756184982940429462e-01
-2.405397803293465309e-01
-2.505622711764026178e-01
-2.305172894822905549e-01
-1.954385715175940841e-01
-2.154835532117063135e-01
-2.255060440587624004e-01
-2.204947986352343015e-01
-1.804048352470099537e-01
-1.152586447411451664e-01
4.510120881175244678e-02
2.004498169411217390e-02
1.553486081293696253e-01
1.302923810117294079e-01
2.104723077881782423e-01
3.407646887999076224e-01
4.209446155763564845e-01
4.760683152351650738e-01
4.008996338822443106e-01
5.211695240469176316e-01
7.216193409880398146e-01
8.920016853879935148e-01
8.719567036938813409e-01
9.972378392820826498e-01
1.042339048093835263e+00
1.187665165376148746e+00
1.272856337576125707e+00
1.177642674529092659e+00
1.272856337576125707e+00
1.142563956564396355e+00
8.519117219997691670e-01
6.113719416704226362e-01
4.008996338822443106e-01
1.353036264352574514e-01
0.000000000000000000e+00
4.008996338822440331e-02
-4.510120881175244678e-02
-2.255060440587624560e-01
-2.305172894822904994e-01
-2.605847620234588158e-01
-2.655960074469868593e-01
-3.758434067646040377e-01
-4.510120881175248564e-01
-2.906522345646271321e-01
-2.806297437175710452e-01
-3.507871796469637649e-01
-2.355285349058185429e-01
-2.104723077881782145e-01
-2.004498169411221276e-01
-1.653710989764257677e-01
-1.252811355882013644e-01
-5.011245423528054577e-02
-2.405397803293465864e-01
-2.104723077881782145e-01
-1.152586447411452220e-01
-1.302923810117294079e-01
-1.804048352470099537e-01
-1.403148718587854948e-01
-1.202698901646733209e-01
-1.503373627058418593e-02
3.507871796469635983e-02
-1.052361538940891350e-01
-1.453261172823135383e-01
1.002249084705608695e-02
3.507871796469635983e-02
-1.002249084705608695e-02
-2.004498169411222941e-02
3.006747254116831636e-02
-2.004498169411222941e-02
6.514619050586470395e-02
2.004498169411222941e-02
0.000000000000000000e+00
0.000000000000000000e+00
3.507871796469635983e-02
3.006747254116831636e-02
6.514619050586470395e-02
2.004498169411221553e-01
2.255060440587624004e-01
2.906522345646271321e-01
3.457759342234357214e-01
4.309671064234126270e-01
5.913269599763103512e-01
6.715068867527591578e-01
8.268554948821289496e-01
7.516868135292080755e-01
6.163831870939506796e-01
3.257309525293234920e-01
1.102473993176171785e-01
6.514619050586470395e-02
-6.013494508233663272e-02
-2.405397803293465864e-01
-1.353036264352574514e-01
-6.013494508233668823e-02
-1.302923810117294079e-01
-2.555735165999307723e-01
-1.453261172823135383e-01
-1.102473993176171785e-01
-1.503373627058416373e-01
-1.002249084705610915e-01
-2.655960074469868593e-01
-3.507871796469635983e-02
-3.507871796469635983e-02
-1.753935898234818547e-01
-7.516868135292080755e-01
-5.311920148939737185e-01
2.655960074469868593e-01
1.999486923987693565e+00
5.036301650645693684e+00
7.146035973951004650e+00
5.126504068269198910e+00
2.976679781575664041e+00
1.673755971458370073e+00
6.364281687880628535e-01
1.503373627058416373e-01
6.514619050586470395e-02
2.004498169411222941e-02
-5.512369965880858924e-02
-1.102473993176171785e-01
-1.152586447411452220e-01
-1.102473993176171785e-01
-5.011245423528054577e-02
-8.519117219997690560e-02
-6.514619050586467619e-02
-4.510120881175250229e-02
2.505622711764027288e-02
0.000000000000000000e+00
5.011245423528054577e-02
8.017992677644886212e-02
9.521366304703302030e-02
1.804048352470099537e-01
1.653710989764257677e-01
1.954385715175940841e-01
2.555735165999307723e-01
3.507871796469637649e-01
3.056859708352112626e-01
4.008996338822443106e-01
5.813044691292542643e-01
5.612594874351419794e-01
5.813044691292542643e-01
7.166080955645117712e-01
7.667205497997922059e-01
8.218442494586009062e-01
9.120466670821056887e-01
9.822041030114986304e-01
9.571478758938583020e-01
9.972378392820827608e-01
9.571478758938583020e-01
8.368779857291850366e-01
7.617093043762641624e-01
5.512369965880858924e-01
2.756184982940430017e-01
7.516868135292079089e-02
-4.008996338822445882e-02
-2.104723077881782145e-01
-3.507871796469638204e-01
-4.059108793057724096e-01
-4.109221247293004531e-01
-4.309671064234126270e-01
-4.760683152351651293e-01
-5.061357877763333901e-01
-5.562482420116139359e-01
-4.059108793057722986e-01
-4.059108793057722986e-01
-4.810795606586931727e-01
-3.908771430351881682e-01
-3.808546521881320812e-01
-3.658209159175479508e-01
-3.106972162587393615e-01
-2.655960074469868593e-01
-3.056859708352113181e-01
-2.956634799881552311e-01
-2.054610623646502265e-01
-2.054610623646502265e-01
-1.403148718587854948e-01
-8.017992677644886212e-02
-1.603598535528977242e-01
-1.804048352470099537e-01
-2.004498169411221831e-01
-1.403148718587854948e-01
-1.002249084705610915e-01
-4.510120881175250229e-02
-8.017992677644886212e-02
-7.516868135292081865e-02
-3.006747254116837187e-02
-2.505622711764027288e-02
-6.013494508233663272e-02
-5.011245423528054577e-02
-1.503373627058418593e-02
-1.503373627058413042e-02
-4.008996338822440331e-02
6.514619050586473170e-02
3.006747254116837187e-02
3.006747254116831636e-02
9.020241762350494907e-02
8.519117219997690560e-02
7.516868135292081865e-02
7.516868135292081865e-02
1.503373627058418593e-02
7.516868135292081865e-02
1.353036264352574514e-01
2.405397803293465864e-01
3.908771430351882237e-01
4.660458243881090423e-01
4.860908060822212162e-01
6.364281687880628535e-01
9.020241762350498238e-01
1.112496484023227872e+00
1.057372784364419394e+00
1.002249084705610915e+00
8.418892311527130801e-01
6.213944325174787231e-01
3.808546521881320812e-01
2.054610623646502265e-01
4.510120881175250229e-02
-7.516868135292081865e-02
-2.004498169411222941e-02
-3.006747254116831636e-02
-1.052361538940891350e-01
-1.453261172823135383e-01
-1.453261172823135383e-01
-1.252811355882013089e-01
-1.353036264352574514e-01
-1.152586447411452220e-01
-4.510120881175250229e-02
-4.008996338822445882e-02
-7.516868135292081865e-02
-3.457759342234356659e-01
-7.416643226821519885e-01
-5.562482420116139359e-01
2.906522345646271321e-01
2.275105422281736622e+00
5.632639856045532412e+00
8.744623264056453849e+00
6.163831870939506352e+00
2.716095019552205336e+00
7.266305864115678581e-01
1.353036264352574514e-01
1.152586447411452220e-01
1.503373627058413042e-02
-2.104723077881782700e-01
-5.712819782821981773e-01
-3.708321613410759943e-01
-4.109221247293004531e-01
-3.407646887999076224e-01
-2.956634799881552311e-01
-2.605847620234588158e-01
-2.655960074469868593e-01
-1.904273260940659851e-01
-1.453261172823135383e-01
-1.002249084705610915e-01
-3.006747254116831636e-02
0.000000000000000000e+00
-1.653710989764257677e-01
-3.006747254116831636e-02
0.000000000000000000e+00
5.512369965880858924e-02
1.302923810117294079e-01
2.104723077881782700e-01
2.856409891410990887e-01
3.207197071057954485e-01
4.660458243881090423e-01
4.860908060822212162e-01
5.963382053998383947e-01
5.161582786233895881e-01
7.667205497997922059e-01
7.917767769174325343e-01
9.621591213173863455e-01
8.920016853879935148e-01
9.671703667409143890e-01
1.022294066399723089e+00
1.152586447411452442e+00
9.671703667409143890e-01
7.667205497997922059e-01
6.364281687880628535e-01
3.608096704940198518e-01
2.154835532117063135e-01
5.011245423528043474e-03
-2.054610623646501710e-01
-2.756184982940430017e-01
-3.357534433763796344e-01
-4.510120881175248564e-01
-4.710570698116370303e-01
-4.209446155763564845e-01
-5.211695240469176316e-01
-5.011245423528053466e-01
-5.211695240469176316e-01
-4.409895972704687139e-01
-4.460008426939967574e-01
-4.008996338822442551e-01
-4.109221247293004531e-01
-4.309671064234126270e-01
-3.708321613410759943e-01
-3.507871796469637093e-01
-3.808546521881320812e-01
-3.507871796469637093e-01
-2.956634799881551756e-01
-3.207197071057954485e-01
-2.505622711764027288e-01
-2.405397803293465309e-01
-2.956634799881551201e-01
-2.555735165999307723e-01
-2.054610623646501710e-01
-1.904273260940660406e-01
-2.706072528705148472e-01
-2.856409891410990887e-01
-2.856409891410990887e-01
-2.706072528705148472e-01
-2.706072528705148472e-01
-1.854160806705379971e-01
-2.655960074469868037e-01
-2.405397803293465864e-01
-1.453261172823135383e-01
-1.152586447411452220e-01
-1.102473993176171785e-01
-1.302923810117294079e-01
-1.403148718587854948e-01
-5.512369965880858924e-02
-3.507871796469635983e-02
-4.008996338822440331e-02
0.000000000000000000e+00
0.000000000000000000e+00
-1.503373627058418593e-02
-5.011245423528098986e-03
1.152586447411452775e-01
8.017992677644888988e-02
-5.011245423528043474e-03
4.008996338822445882e-02
7.015743592939277518e-02
4.008996338822445882e-02
1.052361538940891628e-01
8.017992677644888988e-02
9.020241762350500458e-02
1.353036264352574514e-01
1.603598535528976965e-01
1.152586447411452220e-01
1.353036264352574514e-01
1.753935898234819102e-01
1.603598535528977242e-01
1.954385715175940841e-01
1.954385715175940841e-01
2.154835532117063135e-01
3.507871796469637649e-01
4.460008426939967574e-01
4.109221247293004531e-01
4.760683152351651293e-01
7.466755681056800320e-01
9.120466670821059108e-01
9.621591213173863455e-01
9.922265938585546063e-01
7.166080955645117712e-01
5.261807694704456750e-01
3.357534433763795789e-01
1.152586447411452358e-01
-3.507871796469635983e-02
-6.514619050586467619e-02
-7.516868135292081865e-02
-6.013494508233666047e-02
-9.020241762350497683e-02
-9.020241762350500458e-02
-1.252811355882013644e-01
-6.514619050586470395e-02
-4.510120881175250229e-02
-1.252811355882013644e-01
-1.603598535528977242e-01
-1.353036264352574514e-01
-1.703823443999538112e-01
-4.860908060822212162e-01
-8.819791945409374279e-01
-7.115968501409836167e-01
1.653710989764257677e-01
2.325217876517017057e+00
5.993449526539552430e+00
8.579252165080028192e+00
5.747898500786678078e+00
2.726117510399261423e+00
7.617093043762641624e-01
9.521366304703302030e-02
5.512369965880859618e-02
-1.002249084705610083e-02
-2.355285349058185429e-01
-2.405397803293465864e-01
-2.956634799881551756e-01
-4.259558609998845835e-01
-3.958883884587162116e-01
-2.505622711764026733e-01
-2.906522345646271321e-01
-2.956634799881551756e-01
-1.453261172823135938e-01
-9.020241762350497683e-02
-1.503373627058415818e-02
-4.510120881175247454e-02
-8.017992677644886212e-02
2.004498169411222941e-02
8.017992677644886212e-02
1.553486081293696808e-01
2.054610623646501988e-01
2.054610623646501988e-01
2.505622711764026733e-01
3.056859708352113181e-01
4.109221247293004531e-01
5.061357877763335011e-01
5.813044691292542643e-01
7.266305864115678581e-01
7.717317952233202494e-01
7.867655314939043798e-01
8.519117219997691670e-01
9.621591213173863455e-01
1.022294066399723089e+00
1.152586447411452442e+00
1.207710147070260920e+00
1.172631429105564616e+00
1.117507729446755915e+00
1.057372784364419394e+00
7.867655314939043798e-01
5.512369965880858924e-01
3.307421979528515354e-01
1.503373627058416095e-01
-4.510120881175247454e-02
-1.603598535528977242e-01
-2.054610623646502265e-01
-2.856409891410990332e-01
-3.307421979528515354e-01
-3.557984250704918638e-01
-3.407646887999076779e-01
-3.658209159175479508e-01
-3.357534433763795789e-01
-3.758434067646040377e-01
-3.056859708352112626e-01
-2.455510257528746298e-01
-2.405397803293465864e-01
-2.555735165999307168e-01
-1.904273260940660406e-01
-1.653710989764257677e-01
-1.603598535528977242e-01
-2.204947986352343847e-01
-2.906522345646271321e-01
-2.806297437175710452e-01
-2.204947986352343570e-01
-2.204947986352343570e-01
-1.854160806705379971e-01
-2.004498169411221553e-01
-2.555735165999307723e-01
-2.756184982940429462e-01
-1.653710989764257955e-01
-1.152586447411452358e-01
-1.854160806705379971e-01
-2.255060440587624282e-01
-1.553486081293696808e-01
-1.302923810117294079e-01
-1.453261172823135661e-01
-1.653710989764257955e-01
-1.854160806705379971e-01
-1.804048352470099537e-01
-1.302923810117294079e-01
-1.152586447411452358e-01
-1.302923810117294079e-01
-1.102473993176171785e-01
-3.507871796469637371e-02
-2.505622711764026941e-02
5.011245423528053015e-03
2.505622711764026594e-02
-5.011245423528053883e-03
5.512369965880858924e-02
0.000000000000000000e+00
-2.004498169411221553e-02
0.000000000000000000e+00
7.015743592939274742e-02
8.519117219997691948e-02
6.013494508233664659e-02
1.002249084705610777e-02
-6.514619050586470395e-02
-5.011245423528053189e-02
5.011245423528050413e-03
-5.011245423528057352e-03
0.000000000000000000e+00
5.011245423528057352e-03
-3.507871796469637371e-02
-7.015743592939274742e-02
-1.002249084705610777e-02
5.512369965880858924e-02
-5.011245423528057352e-03
-1.002249084705610777e-02
0.000000000000000000e+00
-1.503373627058415818e-02
7.015743592939274742e-02
-1.002249084705610777e-02
-2.505622711764026594e-02
3.507871796469638065e-02
1.252811355882013367e-01
1.052361538940891350e-01
8.017992677644886212e-02
1.002249084705610638e-01
1.252811355882013367e-01
7.015743592939274742e-02
1.653710989764257677e-01
2.756184982940430017e-01
2.956634799881551756e-01
3.908771430351882237e-01
3.858658976116601802e-01
6.264056779410067666e-01
8.819791945409375389e-01
9.521366304703302585e-01
8.719567036938813409e-01
8.669454582703532974e-01
5.963382053998383947e-01
4.059108793057722986e-01
2.405397803293465864e-01
5.512369965880860312e-02
-1.503373627058415818e-02
5.011245423528054577e-02
3.006747254116831636e-02
1.002249084705610083e-02
-1.202698901646733071e-01
-3.507871796469637371e-02
-4.510120881175248841e-02
-2.505622711764027288e-02
7.516868135292081865e-02
0.000000000000000000e+00
2.505622711764027288e-02
0.000000000000000000e+00
-4.460008426939967574e-01
-9.170579125056338432e-01
-8.519117219997691670e-01
1.603598535528977520e-01
2.184903004658231396e+00
5.717831028245509373e+00
8.689499564397644704e+00
5.492324984186747194e+00
2.821331173446294471e+00
1.182653919952620702e+00
2.505622711764027288e-01
1.002249084705610915e-01
7.516868135292081865e-02
-8.519117219997690560e-02
-2.054610623646501988e-01
-1.904273260940660406e-01
-2.455510257528746298e-01
-3.006747254116832191e-01
-2.806297437175709897e-01
-2.806297437175709897e-01
-3.257309525293234920e-01
-2.856409891410990332e-01
-1.854160806705379971e-01
-1.904273260940660406e-01
-1.804048352470099537e-01
-1.553486081293696808e-01
-1.403148718587854948e-01
-2.956634799881551756e-01
-5.011245423528053883e-02
0.000000000000000000e+00
3.507871796469638759e-02
1.152586447411452220e-01
1.353036264352574514e-01
6.514619050586470395e-02
1.854160806705379971e-01
2.655960074469868593e-01
3.157084616822674050e-01
3.608096704940199073e-01
5.211695240469176316e-01
6.664956413292312254e-01
7.266305864115678581e-01
7.917767769174325343e-01
8.418892311527130801e-01
9.070354216585777563e-01
9.270804033526899302e-01
9.721816121644425435e-01
8.569229674232972105e-01
5.813044691292542643e-01
4.008996338822443106e-01
1.804048352470099259e-01
4.008996338822443106e-02
0.000000000000000000e+00
-1.002249084705610915e-01
-1.202698901646732654e-01
-2.104723077881782700e-01
-2.555735165999307723e-01
-2.104723077881782700e-01
-2.355285349058184874e-01
-2.555735165999307723e-01
-1.854160806705379416e-01
-1.302923810117294079e-01
-1.453261172823135383e-01
-3.006747254116831636e-02
5.512369965880858924e-02
0.000000000000000000e+00
-2.505622711764027288e-02
-2.505622711764027288e-02
1.002249084705608695e-02
-1.002249084705608695e-02
0.000000000000000000e+00
0.000000000000000000e+00
4.510120881175250229e-02
3.006747254116831636e-02
3.006747254116831636e-02
-1.002249084705608695e-02
5.011245423528043474e-03
3.006747254116831636e-02
2.004498169411222941e-02
5.512369965880858924e-02
7.516868135292081865e-02
-1.503373627058416373e-01
4.510120881175250229e-02
3.006747254116831636e-02
8.519117219997690560e-02
5.512369965880858924e-02
-2.505622711764027288e-02
-9.020241762350494907e-02
-7.516868135292081865e-02
-2.505622711764027288e-02
-2.505622711764027288e-02
-2.505622711764027288e-02
-2.505622711764027288e-02
-2.505622711764027288e-02
-8.519117219997690560e-02
-3.006747254116831636e-02
5.011245423528043474e-03
-1.503373627058418593e-02
-2.505622711764027288e-02
2.004498169411222941e-02
-2.505622711764027288e-02
-2.004498169411222941e-02
1.002249084705608695e-02
-1.503373627058418593e-02
-2.004498169411222941e-02
-2.505622711764027288e-02
-2.004498169411222941e-02
-6.013494508233668823e-02
-1.503373627058418593e-02
-5.011245423528098986e-03
-2.004498169411217390e-02
2.004498169411222941e-02
2.505622711764027288e-02
1.503373627058418593e-02
2.004498169411222941e-02
3.006747254116831636e-02
2.505622711764027288e-02
-3.507871796469635983e-02
5.011245423528043474e-03
2.004498169411222941e-02
3.507871796469635983e-02
9.521366304703304806e-02
1.603598535528977242e-01
1.703823443999538390e-01
2.906522345646271321e-01
3.157084616822674050e-01
4.660458243881090423e-01
6.464506596351189405e-01
7.566980589527361190e-01
6.965631138703994862e-01
5.662707328586700228e-01
3.958883884587162671e-01
2.355285349058185429e-01
3.507871796469635983e-02
-5.011245423528054577e-02
-1.603598535528976687e-01
-1.503373627058415818e-01
-1.553486081293696253e-01
-1.603598535528976687e-01
-1.453261172823135383e-01
-1.453261172823135383e-01
-2.104723077881782145e-01
-1.603598535528976687e-01
-7.015743592939277518e-02
-1.102473993176171785e-01
-1.503373627058415818e-01
-2.405397803293465864e-01
-6.915518684468713317e-01
-1.062384029787947437e+00
-9.120466670821056887e-01
3.006747254116831636e-02
2.400386557869937487e+00
6.304146742798292458e+00
7.326440809198015103e+00
4.660458243881090645e+00
2.560746411422835322e+00
9.822041030114985194e-01
2.355285349058185429e-01
5.011245423528054577e-02
-6.514619050586467619e-02
-2.555735165999307168e-01
-3.758434067646039822e-01
-3.958883884587162671e-01
-3.357534433763796344e-01
-4.209446155763564845e-01
-3.407646887999076779e-01
-2.956634799881551201e-01
-3.106972162587393615e-01
-1.954385715175940841e-01
-2.004498169411221276e-01
-2.004498169411221276e-01
-1.202698901646733209e-01
-9.521366304703299255e-02
-4.510120881175244678e-02
0.000000000000000000e+00
1.302923810117294079e-01
1.703823443999538112e-01
1.854160806705379971e-01
2.605847620234588158e-01
3.507871796469637649e-01
4.109221247293003976e-01
6.815293775998152448e-01
5.963382053998383947e-01
7.166080955645116601e-01
8.268554948821288386e-01
9.471253850468022151e-01
1.027305311823250911e+00
1.307935055540822011e+00
1.217732637917317007e+00
1.247800110458485268e+00
1.338002528081990494e+00
1.433216191129023320e+00
1.187665165376148746e+00
1.037327802670306998e+00
8.218442494586007951e-01
5.662707328586700228e-01
3.106972162587393060e-01
7.516868135292076314e-02
-1.252811355882013089e-01
-2.455510257528745743e-01
-3.357534433763796344e-01
-3.507871796469637649e-01
-4.008996338822443106e-01
-4.159333701528284410e-01
-4.209446155763564845e-01
-4.460008426939968129e-01
-4.409895972704687694e-01
-3.958883884587162671e-01
-4.209446155763564845e-01
-3.507871796469637649e-01
-2.756184982940430017e-01
-3.407646887999076779e-01
-2.856409891410990887e-01
-2.756184982940430017e-01
-3.106972162587393060e-01
-2.806297437175709897e-01
-2.405397803293465309e-01
-3.056859708352113181e-01
-3.257309525293234920e-01
-2.355285349058185429e-01
-2.756184982940429462e-01
-2.956634799881551201e-01
-2.455510257528745743e-01
-2.305172894822904439e-01
-2.455510257528746854e-01
-2.154835532117063135e-01
-2.605847620234587603e-01
-2.054610623646501710e-01
-1.152586447411452775e-01
-1.152586447411452220e-01
-1.503373627058416373e-01
-8.519117219997685009e-02
-3.507871796469635983e-02
-4.008996338822440331e-02
-3.507871796469635983e-02
-1.503373627058413042e-02
-6.013494508233663272e-02
-5.512369965880858924e-02
7.015743592939277518e-02
2.004498169411222941e-02
-3.507871796469635983e-02
0.000000000000000000e+00
-5.011245423528043474e-03
4.510120881175250229e-02
7.516868135292081865e-02
1.002249084705610915e-01
1.753935898234819102e-01
3.006747254116832746e-01
3.708321613410759943e-01
3.457759342234357214e-01
4.660458243881090423e-01
6.915518684468714428e-01
8.519117219997691670e-01
8.769679491174093844e-01
7.617093043762641624e-01
5.311920148939737185e-01
3.407646887999076779e-01
1.904273260940660406e-01
6.013494508233663272e-02
-4.510120881175250229e-02
-5.011245423528054577e-02
-7.015743592939271966e-02
-1.353036264352573959e-01
-8.519117219997690560e-02
-8.519117219997690560e-02
-8.519117219997690560e-02
-2.004498169411222941e-02
0.000000000000000000e+00
-5.011245423528054577e-02
0.000000000000000000e+00
-5.011245423528043474e-03
-2.956634799881551201e-01
-8.017992677644885102e-01
-9.521366304703302585e-01
-6.514619050586469839e-01
7.516868135292080755e-01
4.059108793057723652e+00
7.411631981397991176e+00
6.890462457351073766e+00
4.169356192375341053e+00
1.964408206022997039e+00
6.664956413292311144e-01
2.605847620234588158e-01
1.854160806705379971e-01
-2.505622711764027288e-02
-1.653710989764257677e-01
-1.854160806705379416e-01
-2.906522345646270766e-01
-2.856409891410990332e-01
-2.305172894822904439e-01
-2.305172894822904439e-01
-2.104723077881782700e-01
-1.102473993176171785e-01
-7.015743592939271966e-02
-3.507871796469635983e-02
-5.011245423528043474e-03
2.004498169411222941e-02
5.011245423528054577e-02
1.202698901646733209e-01
1.753935898234818824e-01
1.804048352470099537e-01
2.706072528705149027e-01
3.157084616822674050e-01
2.956634799881551756e-01
3.608096704940199073e-01
4.660458243881089868e-01
5.161582786233895881e-01
6.414394142115908970e-01
7.566980589527361190e-01
8.569229674232972105e-01
9.922265938585546063e-01
1.067395275211475481e+00
1.152586447411452220e+00
1.187665165376148746e+00
1.237777619611429181e+00
1.237777619611429181e+00
1.137552711140868311e+00
9.621591213173863455e-01
7.015743592939275297e-01
4.460008426939967574e-01
2.004498169411221553e-01
1.002249084705608695e-02
-2.255060440587624560e-01
-3.407646887999076779e-01
-4.259558609998845835e-01
-4.810795606586931727e-01
-5.311920148939737185e-01
-4.860908060822211607e-01
-5.412145057410298055e-01
-5.813044691292543753e-01
-5.512369965880858924e-01
-4.860908060822212717e-01
-4.710570698116370303e-01
-4.159333701528284410e-01
-4.209446155763564845e-01
-4.059108793057723541e-01
-4.159333701528284966e-01
-4.059108793057722986e-01
-4.460008426939967574e-01
-3.958883884587162116e-01
-3.407646887999076224e-01
-3.858658976116601247e-01
-3.407646887999076224e-01
-2.655960074469868593e-01
-2.505622711764026733e-01
-2.806297437175709897e-01
-2.605847620234588158e-01
-2.806297437175709897e-01
-2.405397803293465864e-01
-1.202698901646732654e-01
-1.353036264352574514e-01
-2.605847620234588158e-01
-2.405397803293465864e-01
-2.455510257528746298e-01
-2.104723077881782700e-01
-1.603598535528977242e-01
-1.453261172823135383e-01
-1.353036264352574514e-01
-8.017992677644886212e-02
0.000000000000000000e+00
-2.505622711764027288e-02
1.603598535528977242e-01
1.854160806705379971e-01
1.854160806705379971e-01
4.810795606586931727e-01
7.316418318350959016e-01
8.268554948821288386e-01
8.118217586115447082e-01
5.863157145527823078e-01
4.810795606586931727e-01
3.106972162587393615e-01
1.403148718587854948e-01
0.000000000000000000e+00
-8.519117219997690560e-02
-5.011245423528054577e-02
-3.507871796469635983e-02
-1.503373627058415818e-02
-1.052361538940891350e-01
-1.152586447411452220e-01
-9.020241762350494907e-02
-8.519117219997693335e-02
-4.008996338822443106e-02
-4.008996338822443106e-02
0.000000000000000000e+00
4.008996338822443106e-02
-3.407646887999077334e-01
-7.416643226821519885e-01
-8.218442494586009062e-01
-1.753935898234818824e-01
1.653710989764257677e+00
4.555222089987001510e+00
7.236238391574509876e+00
5.206683995045647606e+00
3.252298279869706654e+00
1.849149561281852039e+00
6.314169233645348100e-01
1.603598535528977242e-01
5.512369965880858924e-02
-9.521366304703302030e-02
-1.653710989764257677e-01
-2.405397803293465864e-01
-2.806297437175709897e-01
-2.856409891410990332e-01
-2.906522345646270766e-01
-3.457759342234357214e-01
-3.257309525293234920e-01
-2.405397803293465864e-01
-2.154835532117063135e-01
-1.603598535528977242e-01
-1.052361538940891350e-01
-6.514619050586470395e-02
0.000000000000000000e+00
0.000000000000000000e+00
4.510120881175250229e-02
7.015743592939277518e-02
1.403148718587855504e-01
1.703823443999538667e-01
2.305172894822904994e-01
4.008996338822443106e-01
4.810795606586932283e-01
5.211695240469176316e-01
6.113719416704226362e-01
7.015743592939274187e-01
7.667205497997922059e-01
9.621591213173863455e-01
1.307935055540822011e+00
1.057372784364419394e+00
1.117507729446755915e+00
1.132541465717340046e+00
1.162608938258508529e+00
9.721816121644424324e-01
9.070354216585776452e-01
6.965631138703993752e-01
5.011245423528053466e-01
2.655960074469868593e-01
6.013494508233663272e-02
-7.516868135292081865e-02
-1.503373627058416373e-01
-1.653710989764257955e-01
-2.405397803293465864e-01
-2.355285349058185429e-01
-2.505622711764027288e-01
-2.655960074469868593e-01
-2.154835532117063135e-01
-1.353036264352574514e-01
-1.252811355882013644e-01
-1.403148718587855226e-01
-1.403148718587855226e-01
-7.516868135292081865e-02
-7.015743592939277518e-02
5.011245423528043474e-03
-2.004498169411222941e-02
-7.516868135292081865e-02
-5.011245423528043474e-03
5.512369965880858924e-02
1.503373627058413042e-02
2.004498169411222941e-02
2.004498169411222941e-02
3.006747254116831636e-02
5.011245423528054577e-02
6.013494508233663272e-02
9.020241762350494907e-02
6.013494508233663272e-02
1.202698901646733209e-01
-4.510120881175250229e-02
1.052361538940891350e-01
1.954385715175940841e-01
2.706072528705149582e-01
2.605847620234587603e-01
2.605847620234587603e-01
4.109221247293003976e-01
6.063606962468945927e-01
8.920016853879935148e-01
9.721816121644424324e-01
8.218442494586006841e-01
6.664956413292311144e-01
5.362032603175017620e-01
3.157084616822673495e-01
8.519117219997690560e-02
2.004498169411222941e-02
-1.102473993176171785e-01
-1.503373627058416095e-01
-1.252811355882013367e-01
-1.553486081293696530e-01
-1.503373627058416095e-01
-1.453261172823135661e-01
-1.302923810117294079e-01
-1.453261172823135661e-01
-1.503373627058416095e-01
-1.503373627058416095e-01
-1.453261172823135661e-01
-1.653710989764257677e-01
-4.259558609998845835e-01
-8.118217586115445972e-01
-9.571478758938583020e-01
-5.161582786233895881e-01
1.358047509776102668e+00
4.089176265598892357e+00
6.950597402433411176e+00
5.532414947574971542e+00
3.056859708352113181e+00
1.713845934846594421e+00
5.913269599763104623e-01
-7.516868135292081865e-02
-1.202698901646732932e-01
-1.302923810117294079e-01
-2.806297437175709897e-01
-2.756184982940429462e-01
-2.655960074469868593e-01
-3.106972162587393615e-01
-3.157084616822674050e-01
-2.956634799881551756e-01
-2.605847620234588158e-01
-2.255060440587624282e-01
-2.154835532117063135e-01
-2.004498169411221553e-01
-6.514619050586470395e-02
-5.011245423528071230e-03
-3.006747254116834411e-02
-4.510120881175247454e-02
1.002249084705611470e-02
6.013494508233666047e-02
1.002249084705610915e-01
1.854160806705379971e-01
2.154835532117063135e-01
2.355285349058185429e-01
3.207197071057954485e-01
4.359783518469406705e-01
5.813044691292542643e-01
6.113719416704225251e-01
6.414394142115908970e-01
6.965631138703994862e-01
7.516868135292080755e-01
8.268554948821289496e-01
8.970129308115216693e-01
9.471253850468021040e-01
8.970129308115216693e-01
7.416643226821519885e-01
5.612594874351420904e-01
3.858658976116601247e-01
1.453261172823135661e-01
0.000000000000000000e+00
0.000000000000000000e+00
0.000000000000000000e+00
0.000000000000000000e+00
-4.510120881175250229e-02
-1.553486081293696253e-01
-1.954385715175940841e-01
-1.553486081293696253e-01
-1.202698901646733209e-01
-1.503373627058415818e-01
-1.854160806705379971e-01
-1.553486081293696253e-01
-1.804048352470099537e-01
-1.603598535528977798e-01
-1.252811355882013644e-01
-8.017992677644886212e-02
-6.013494508233668823e-02
-1.152586447411452775e-01
-2.505622711764027288e-02
-6.514619050586473170e-02
0.000000000000000000e+00
-3.507871796469641534e-02
-3.507871796469641534e-02
3.507871796469635983e-02
4.008996338822440331e-02
2.004498169411222941e-02
-2.004498169411222941e-02
2.505622711764027288e-02
4.008996338822445882e-02
1.002249084705614246e-02
4.008996338822445882e-02
5.011245423528054577e-02
8.017992677644886212e-02
2.104723077881782700e-01
2.154835532117063412e-01
2.655960074469868593e-01
5.662707328586701339e-01
7.617093043762641624e-01
8.519117219997691670e-01
8.318667403056569931e-01
6.163831870939506796e-01
4.259558609998845835e-01
2.305172894822904994e-01
5.011245423528054577e-02
-9.521366304703299255e-02
-1.453261172823135383e-01
-1.403148718587854948e-01
-2.004498169411221276e-01
-1.954385715175940841e-01
-1.353036264352574514e-01
-1.653710989764257122e-01
-1.904273260940660406e-01
-1.854160806705379971e-01
-1.904273260940660406e-01
-1.904273260940660406e-01
-1.152586447411452775e-01
-1.102473993176171230e-01
-3.557984250704918083e-01
-7.516868135292080755e-01
-1.047350293517363307e+00
-5.863157145527821967e-01
8.519117219997691670e-01
3.362545679187324055e+00
6.639900186174671148e+00
5.838100918410182416e+00
3.517894287316694069e+00
2.024543151105333560e+00
5.913269599763103512e-01
0.000000000000000000e+00
-6.013494508233663272e-02
-7.516868135292087416e-02
-1.954385715175941396e-01
-2.455510257528746854e-01
-3.307421979528515354e-01
-3.307421979528515354e-01
-2.655960074469868593e-01
-2.355285349058185984e-01
-1.603598535528977242e-01
-1.503373627058416373e-01
-8.017992677644891764e-02
-3.507871796469641534e-02
0.000000000000000000e+00
-2.505622711764032839e-02
0.000000000000000000e+00
9.521366304703299255e-02
7.015743592939271966e-02
7.516868135292076314e-02
2.255060440587624004e-01
2.505622711764026178e-01
3.006747254116832746e-01
4.259558609998845835e-01
4.008996338822443661e-01
5.011245423528054577e-01
6.314169233645348100e-01
7.216193409880398146e-01
8.268554948821289496e-01
8.318667403056569931e-01
9.120466670821057997e-01
9.020241762350496018e-01
1.007260330129138737e+00
1.047350293517363307e+00
1.032316557246779176e+00
9.721816121644424324e-01
7.767430406468482929e-01
6.314169233645348100e-01
3.858658976116601247e-01
2.255060440587624560e-01
-2.004498169411228492e-02
-1.403148718587855504e-01
-1.553486081293696808e-01
-2.906522345646271877e-01
-3.157084616822674050e-01
-3.507871796469638204e-01
-3.608096704940199073e-01
-3.808546521881320812e-01
-3.056859708352113181e-01
-3.858658976116601247e-01
-4.710570698116369748e-01
-3.557984250704918638e-01
-3.056859708352113181e-01
-2.856409891410991442e-01
-2.605847620234588158e-01
-2.154835532117063135e-01
-2.706072528705149027e-01
-2.405397803293466419e-01
-2.255060440587624004e-01
-2.255060440587624004e-01
-2.154835532117063135e-01
-1.954385715175941396e-01
-1.603598535528977242e-01
-1.503373627058416373e-01
-1.202698901646732654e-01
-1.252811355882014199e-01
-8.017992677644891764e-02
-1.002249084705610915e-01
-1.353036264352575069e-01
-1.804048352470100092e-01
-9.521366304703304806e-02
-7.015743592939283069e-02
-8.017992677644891764e-02
-6.514619050586467619e-02
1.503373627058413042e-02
1.052361538940891350e-01
1.603598535528977242e-01
2.505622711764026733e-01
2.906522345646270766e-01
5.061357877763333901e-01
7.617093043762641624e-01
8.519117219997691670e-01
7.316418318350959016e-01
6.063606962468944817e-01
3.908771430351881682e-01
2.255060440587624004e-01
9.521366304703304806e-02
-1.503373627058413042e-02
-5.011245423528054577e-02
-7.516868135292087416e-02
-1.403148718587855504e-01
-1.804048352470098981e-01
-1.353036264352575069e-01
-1.302923810117293524e-01
-1.553486081293696808e-01
-1.403148718587855504e-01
-9.020241762350500458e-02
-7.015743592939271966e-02
0.000000000000000000e+00
2.505622711764032839e-02
-3.908771430351881682e-01
-8.218442494586007951e-01
-8.017992677644886212e-01
-1.804048352470098981e-01
2.039576887375917913e+00
5.086414104880974563e+00
7.627115534609697711e+00
5.823067182139599396e+00
3.142050880552089698e+00
1.593576044681920933e+00
4.560233335410528999e-01
1.202698901646733209e-01
5.011245423528054577e-02
-9.020241762350494907e-02
-1.954385715175940841e-01
-2.405397803293465864e-01
-3.257309525293234920e-01
-4.008996338822442551e-01
-3.608096704940198518e-01
-3.106972162587393615e-01
-2.706072528705149027e-01
-2.204947986352343847e-01
-2.255060440587624282e-01
-1.753935898234818824e-01
-4.008996338822443106e-02
-1.002249084705611470e-02
0.000000000000000000e+00
0.000000000000000000e+00
8.017992677644886212e-02
1.403148718587855226e-01
1.904273260940660406e-01
2.204947986352343570e-01
3.457759342234357214e-01
4.059108793057723541e-01
4.860908060822212162e-01
6.213944325174787231e-01
6.915518684468714428e-01
8.017992677644886212e-01
8.418892311527130801e-01
8.819791945409374279e-01
9.571478758938583020e-01
1.017282820976195046e+00
1.072406520635003524e+00
1.127530220293812002e+00
1.047350293517363307e+00
9.020241762350496018e-01
7.717317952233202494e-01
6.464506596351189405e-01
3.307421979528515354e-01
1.353036264352574514e-01
0.000000000000000000e+00
-1.603598535528977242e-01
-2.405397803293465864e-01
-2.956634799881551756e-01
-3.257309525293234920e-01
-3.808546521881320812e-01
-3.257309525293234920e-01
-2.756184982940429462e-01
-3.307421979528515354e-01
-2.655960074469868593e-01
-3.207197071057954485e-01
-3.257309525293234920e-01
-3.357534433763795789e-01
-2.806297437175709897e-01
-2.054610623646502265e-01
-2.104723077881782700e-01
-1.453261172823135661e-01
-1.753935898234818824e-01
-1.753935898234818824e-01
-1.453261172823135661e-01
-1.453261172823135661e-01
-1.202698901646732932e-01
-6.514619050586470395e-02
-5.512369965880859618e-02
-6.514619050586470395e-02
-4.008996338822443106e-02
1.002249084705611470e-02
-6.013494508233664659e-02
-3.507871796469638759e-02
-2.004498169411221553e-02
1.503373627058415818e-02
5.512369965880858924e-02
4.008996338822443106e-02
-5.011245423528054577e-02
-4.008996338822443800e-02
1.503373627058415818e-02
4.008996338822443106e-02
1.202698901646732932e-01
1.653710989764257955e-01
1.553486081293696530e-01
1.202698901646732932e-01
1.152586447411452220e-01
-8.519117219997691948e-02
2.104723077881782700e-01
2.405397803293465864e-01
2.555735165999307723e-01
2.505622711764026733e-01
4.008996338822443106e-01
5.412145057410298055e-01
5.813044691292542643e-01
5.462257511645578489e-01
6.765181321762873123e-01
9.020241762350497128e-01
1.007260330129138959e+00
9.872153484350265629e-01
8.519117219997691670e-01
6.715068867527592689e-01
5.863157145527823078e-01
3.006747254116832191e-01
1.353036264352574514e-01
1.052361538940891350e-01
5.512369965880858924e-02
-5.512369965880859618e-02
-1.102473993176171785e-01
-8.017992677644886212e-02
-9.020241762350497683e-02
-3.006747254116832330e-02
-4.008996338822443106e-02
-3.006747254116832330e-02
-1.503373627058416165e-02
-1.002249084705610777e-02
-4.510120881175248841e-02
-2.455510257528746576e-01
-6.264056779410067666e-01
-9.922265938585547174e-01
-7.065856047174555732e-01
5.512369965880858924e-01
3.081915935469753176e+00
6.875428721080489858e+00
6.890462457351073766e+00
4.059108793057723652e+00
2.064633114493558352e+00
4.710570698116370303e-01
-9.020241762350497683e-02
-2.054610623646501988e-01
-3.207197071057954485e-01
-4.359783518469406705e-01
-4.911020515057493152e-01
-4.911020515057493152e-01
-5.762932237057261098e-01
-5.362032603175017620e-01
-4.961132969292773032e-01
-4.610345789645809433e-01
-4.510120881175248564e-01
-3.958883884587162116e-01
-3.608096704940198518e-01
-3.357534433763795789e-01
-1.804048352470099259e-01
-8.519117219997690560e-02
-8.519117219997690560e-02
-5.512369965880858924e-02
-5.011245423528043474e-03
7.015743592939277518e-02
8.017992677644886212e-02
1.904273260940660406e-01
2.605847620234588158e-01
2.806297437175709897e-01
3.307421979528515354e-01
4.259558609998845835e-01
4.810795606586931727e-01
5.813044691292542643e-01
6.965631138703994862e-01
7.216193409880398146e-01
7.416643226821519885e-01
8.418892311527130801e-01
9.371028941997461281e-01
9.170579125056339542e-01
8.920016853879935148e-01
7.717317952233202494e-01
5.562482420116139359e-01
3.858658976116601802e-01
1.603598535528977520e-01
-1.002249084705614246e-02
-1.753935898234818547e-01
-2.856409891410990332e-01
-4.460008426939967574e-01
-4.560233335410529554e-01
-4.710570698116370858e-01
-5.261807694704456750e-01
-4.961132969292773032e-01
-5.011245423528053466e-01
-5.211695240469176316e-01
-5.261807694704456750e-01
-4.460008426939967574e-01
-4.008996338822443661e-01
-4.008996338822443661e-01
-3.157084616822674050e-01
-2.856409891410990332e-01
-2.856409891410990332e-01
-4.008996338822443661e-01
-2.806297437175709897e-01
-2.856409891410990332e-01
-2.355285349058184874e-01
-2.355285349058184874e-01
-1.152586447411452220e-01
-2.555735165999307723e-01
-2.355285349058184874e-01
-2.204947986352343570e-01
-2.054610623646502265e-01
-1.753935898234818547e-01
-2.204947986352343015e-01
-1.703823443999537557e-01
-1.753935898234819102e-01
-1.954385715175940841e-01
-1.703823443999538667e-01
-1.603598535528976687e-01
-1.403148718587854948e-01
-1.152586447411452775e-01
-8.017992677644886212e-02
-4.510120881175250229e-02
-5.011245423528043474e-03
0.000000000000000000e+00
1.353036264352574514e-01
1.002249084705610360e-01
1.002249084705610360e-01
1.403148718587855504e-01
1.553486081293696808e-01
1.252811355882013644e-01
1.603598535528977242e-01
1.753935898234819102e-01
1.804048352470099537e-01
1.904273260940660406e-01
1.753935898234819102e-01
1.353036264352574514e-01
1.353036264352574514e-01
1.403148718587854948e-01
1.353036264352574514e-01
1.653710989764257677e-01
1.854160806705379971e-01
1.553486081293696808e-01
1.804048352470099537e-01
1.954385715175940841e-01
1.653710989764257677e-01
1.854160806705379971e-01
1.753935898234819102e-01
1.353036264352574514e-01
1.904273260940660406e-01
2.756184982940429462e-01
2.756184982940429462e-01
2.906522345646271321e-01
3.808546521881320812e-01
6.364281687880628535e-01
7.617093043762641624e-01
9.120466670821057997e-01
7.216193409880398146e-01
4.911020515057492597e-01
3.708321613410759943e-01
2.054610623646502265e-01
-2.004498169411217390e-02
-1.353036264352575069e-01
-1.302923810117294634e-01
-2.104723077881782700e-01
-2.104723077881782700e-01
-2.555735165999307723e-01
-2.455510257528746854e-01
-2.455510257528746298e-01
-2.605847620234588158e-01
-2.555735165999307168e-01
-2.355285349058185429e-01
-4.008996338822440331e-02
-2.956634799881551756e-01
-5.913269599763104623e-01
-1.027305311823251133e+00
-1.227755128764373316e+00
-7.566980589527361190e-01
9.721816121644424324e-01
3.983940111704802778e+00
7.201159673609813794e+00
6.113719416704225473e+00
3.522905532740221446e+00
1.698812198576010069e+00
4.510120881175248564e-01
1.503373627058413042e-02
-8.017992677644880661e-02
-2.104723077881782700e-01
-3.056859708352113181e-01
-3.608096704940199073e-01
-4.710570698116370858e-01
-4.560233335410529554e-01
-3.758434067646040377e-01
-3.106972162587393615e-01
-2.455510257528746854e-01
-2.154835532117063135e-01
-2.255060440587624004e-01
-2.204947986352343570e-01
-1.603598535528977242e-01
-1.453261172823135938e-01
-1.152586447411452220e-01
-6.514619050586467619e-02
-7.015743592939283069e-02
-1.753935898234818547e-01
9.521366304703304806e-02
1.453261172823135383e-01
2.104723077881782145e-01
3.207197071057954485e-01
3.708321613410759943e-01
4.209446155763565400e-01
5.412145057410298055e-01
6.063606962468944817e-01
6.715068867527591578e-01
8.218442494586007951e-01
9.270804033526899302e-01
9.571478758938583020e-01
1.042339048093835263e+00
1.087440256905587654e+00
1.082429011482059611e+00
1.122518974870283959e+00
1.037327802670307220e+00
8.118217586115447082e-01
6.063606962468944817e-01
4.059108793057723541e-01
1.854160806705379971e-01
-5.011245423528054577e-02
-1.503373627058416373e-01
-2.104723077881782700e-01
-2.806297437175711007e-01
-2.906522345646271877e-01
-3.257309525293234920e-01
-3.257309525293234920e-01
-3.307421979528515354e-01
-2.756184982940429462e-01
-2.305172894822904439e-01
-1.904273260940659851e-01
-1.753935898234818547e-01
-2.104723077881782700e-01
-1.954385715175940841e-01
-1.753935898234818547e-01
-1.804048352470100092e-01
-1.653710989764257677e-01
-1.453261172823135938e-01
-1.302923810117293524e-01
-5.512369965880858924e-02
-6.514619050586473170e-02
-1.102473993176171230e-01
-9.521366304703299255e-02
-1.353036264352573959e-01
-1.753935898234819102e-01
-1.904273260940660406e-01
-1.603598535528976687e-01
-9.521366304703299255e-02
-1.954385715175941396e-01
-1.603598535528977242e-01
-1.453261172823135938e-01
-2.104723077881782700e-01
-2.255060440587624004e-01
-2.054610623646502265e-01
-2.255060440587624004e-01
-1.603598535528977242e-01
-1.653710989764257677e-01
-2.255060440587624004e-01
-1.353036264352574514e-01
1.002249084705608695e-02
-7.516868135292081865e-02
-1.553486081293696808e-01
-1.152586447411452775e-01
-8.017992677644886212e-02
-9.521366304703304806e-02
-6.514619050586473170e-02
0.000000000000000000e+00
-5.011245423528043474e-03
3.507871796469638759e-02
1.152586447411452220e-01
1.002249084705608695e-02
-3.006747254116831636e-02
6.013494508233663272e-02
1.503373627058415818e-02
6.013494508233663272e-02
8.519117219997693335e-02
1.002249084705610915e-01
1.202698901646732932e-01
1.353036264352574514e-01
1.202698901646732932e-01
1.854160806705379971e-01
2.455510257528746298e-01
2.405397803293465864e-01
3.056859708352113181e-01
5.662707328586700228e-01
7.266305864115678581e-01
8.017992677644885102e-01
8.418892311527130801e-01
7.166080955645116601e-01
4.760683152351651293e-01
3.708321613410759943e-01
2.655960074469868593e-01
4.008996338822444494e-02
5.011245423528071230e-03
1.503373627058418593e-02
-1.503373627058415818e-02
1.002249084705611470e-02
-3.006747254116831636e-02
-5.512369965880858924e-02
-8.519117219997693335e-02
-2.004498169411222941e-02
7.516868135292080477e-02
6.013494508233663272e-02
5.011245423528053189e-02
-1.503373627058415818e-01
-5.462257511645578489e-01
-8.068105131880166647e-01
-7.767430406468484039e-01
2.655960074469868593e-01
2.325217876517017057e+00
5.306908903516208476e+00
6.464506596351188961e+00
4.084165020175364091e+00
2.655960074469868815e+00
1.453261172823135716e+00
3.608096704940198518e-01
-4.008996338822444494e-02
-7.015743592939276130e-02
-2.305172894822904994e-01
-3.056859708352113181e-01
-3.457759342234357214e-01
-3.758434067646040377e-01
-3.908771430351881682e-01
-3.708321613410759943e-01
-2.255060440587624560e-01
-1.503373627058416373e-01
-1.353036264352574514e-01
-1.904273260940660684e-01
-1.052361538940891350e-01
-1.453261172823135661e-01
-8.017992677644886212e-02
-3.006747254116831636e-02
1.302923810117294079e-01
1.202698901646732932e-01
1.403148718587855226e-01
1.804048352470099537e-01
2.455510257528746298e-01
3.157084616822674050e-01
3.257309525293234920e-01
4.560233335410528999e-01
5.061357877763335011e-01
5.863157145527823078e-01
6.564731504821750274e-01
7.216193409880398146e-01
8.368779857291850366e-01
9.621591213173863455e-01
9.621591213173863455e-01
9.721816121644424324e-01
1.007260330129138737e+00
1.077417766058531567e+00
1.077417766058531567e+00
9.070354216585776452e-01
6.264056779410067666e-01
5.111470331998615446e-01
3.157084616822674050e-01
1.252811355882013367e-01
-2.505622711764027288e-02
-7.015743592939277518e-02
-1.102473993176171785e-01
-2.555735165999307168e-01
-2.555735165999307168e-01
-2.355285349058185429e-01
-2.405397803293465309e-01
-2.906522345646270766e-01
-2.505622711764027288e-01
-2.505622711764027288e-01
-2.154835532117063135e-01
-1.653710989764257677e-01
-1.252811355882013644e-01
-1.202698901646733209e-01
-8.519117219997690560e-02
-7.015743592939277518e-02
-7.516868135292081865e-02
-7.516868135292081865e-02
-1.353036264352575069e-01
-1.102473993176172340e-01
2.004498169411222941e-02
-3.507871796469635983e-02
-4.008996338822440331e-02
-4.510120881175250229e-02
-2.906522345646270766e-01
-8.017992677644886212e-02
5.512369965880858924e-02
9.521366304703304806e-02
2.505622711764027288e-02
5.512369965880858924e-02
-1.002249084705608695e-02
-3.006747254116831636e-02
1.753935898234818824e-01
7.015743592939277518e-02
2.505622711764027288e-02
1.503373627058418593e-02
8.519117219997690560e-02
1.052361538940891350e-01
3.507871796469635983e-02
-1.503373627058413042e-02
1.553486081293696808e-01
1.553486081293696808e-01
1.503373627058416095e-01
2.154835532117063135e-01
2.154835532117063135e-01
3.658209159175479508e-01
5.963382053998383947e-01
7.216193409880398146e-01
7.516868135292080755e-01
7.366530772586239451e-01
5.863157145527823078e-01
4.560233335410528999e-01
2.605847620234588158e-01
6.514619050586473170e-02
-1.002249084705608695e-02
0.000000000000000000e+00
-1.252811355882013644e-01
-2.104723077881782145e-01
-1.453261172823135383e-01
-4.510120881175250229e-02
-1.503373627058416373e-01
-1.202698901646732654e-01
-7.015743592939277518e-02
-1.152586447411452220e-01
-1.503373627058415818e-01
-7.015743592939271966e-02
-2.706072528705148472e-01
-7.316418318350959016e-01
-9.721816121644424324e-01
-6.965631138703993752e-01
4.510120881175248564e-01
2.535690184305195327e+00
5.813044691292541977e+00
5.782977218751374160e+00
3.788501540187208860e+00
2.455510257528746187e+00
1.092451502329115698e+00
1.753935898234819102e-01
-7.516868135292081865e-02
-1.202698901646732654e-01
-1.603598535528977242e-01
-2.204947986352344125e-01
-3.407646887999076779e-01
-3.608096704940198518e-01
-2.806297437175709897e-01
-2.255060440587624560e-01
-2.455510257528746298e-01
-1.904273260940660406e-01
-1.503373627058415818e-01
-7.516868135292081865e-02
0.000000000000000000e+00
-9.521366304703299255e-02
-1.503373627058413042e-02
9.020241762350494907e-02
5.512369965880858924e-02
6.013494508233663272e-02
1.854160806705379971e-01
2.555735165999307723e-01
2.405397803293465864e-01
2.505622711764027288e-01
3.557984250704918083e-01
4.059108793057723541e-01
5.562482420116139359e-01
7.065856047174555732e-01
7.566980589527361190e-01
7.166080955645117712e-01
7.216193409880398146e-01
7.516868135292080755e-01
8.819791945409374279e-01
9.120466670821059108e-01
9.371028941997461281e-01
9.220691579291618867e-01
8.017992677644886212e-01
5.562482420116139359e-01
2.956634799881551756e-01
1.703823443999538390e-01
3.006747254116831636e-02
-1.052361538940891350e-01
-2.204947986352344125e-01
-3.207197071057953930e-01
-3.958883884587162671e-01
-3.006747254116832191e-01
-3.608096704940198518e-01
-4.259558609998845280e-01
-4.510120881175249119e-01
-4.460008426939968684e-01
-3.858658976116601247e-01
-3.207197071057954485e-01
-2.706072528705149027e-01
-2.906522345646270766e-01
-3.608096704940197963e-01
-3.407646887999076224e-01
-2.455510257528745743e-01
-1.854160806705379416e-01
-1.052361538940890795e-01
-1.503373627058415818e-01
-2.004498169411221276e-01
-9.521366304703299255e-02
1.503373627058418593e-02
0.000000000000000000e+00
1.503373627058418593e-02
0.000000000000000000e+00
-8.017992677644886212e-02
-8.519117219997690560e-02
-8.017992677644886212e-02
-9.020241762350494907e-02
-9.020241762350494907e-02
-7.015743592939271966e-02
-2.004498169411217390e-02
-4.008996338822440331e-02
-4.008996338822440331e-02
2.004498169411222941e-02
-1.002249084705608695e-02
1.503373627058418593e-02
7.516868135292081865e-02
3.507871796469635983e-02
6.514619050586467619e-02
1.503373627058413042e-02
2.004498169411222941e-02
3.507871796469635983e-02
1.403148718587855226e-01
1.302923810117294356e-01
1.503373627058416373e-01
1.002249084705610915e-01
1.252811355882013644e-01
2.154835532117063135e-01
2.756184982940429462e-01
2.856409891410990332e-01
3.257309525293234920e-01
4.209446155763565400e-01
6.264056779410067666e-01
7.516868135292080755e-01
8.569229674232972105e-01
7.065856047174555732e-01
5.161582786233895881e-01
4.309671064234126270e-01
3.257309525293234920e-01
4.008996338822445882e-02
-8.017992677644886212e-02
-3.006747254116837187e-02
1.503373627058413042e-02
-8.017992677644886212e-02
-1.152586447411452220e-01
-1.703823443999538112e-01
-1.202698901646732654e-01
-7.516868135292081865e-02
-1.152586447411452220e-01
-2.255060440587624004e-01
-1.353036264352574514e-01
-1.152586447411452220e-01
-4.510120881175248009e-01
-7.316418318350959016e-01
-7.667205497997922059e-01
-2.806297437175709897e-01
1.287890073846709837e+00
3.828591503575433208e+00
6.404371651268853327e+00
4.880953042516324558e+00
3.051848462928584915e+00
1.919306997211244648e+00
5.562482420116139359e-01
-5.011245423528043474e-03
-9.521366304703299255e-02
-1.954385715175940841e-01
-2.355285349058184874e-01
-2.956634799881551201e-01
-3.056859708352113181e-01
-2.355285349058184874e-01
-2.806297437175710452e-01
-2.756184982940430017e-01
-1.353036264352574514e-01
-2.154835532117063690e-01
-3.507871796469637649e-01
-2.555735165999307168e-01
-1.954385715175940841e-01
-1.052361538940891350e-01
0.000000000000000000e+00
-5.011245423528043474e-03
1.002249084705608695e-02
1.603598535528977520e-01
2.355285349058185429e-01
1.804048352470099537e-01
2.505622711764027288e-01
4.059108793057723541e-01
4.961132969292773032e-01
5.662707328586700228e-01
6.514619050586469839e-01
6.614843959057030709e-01
8.819791945409375389e-01
9.070354216585777563e-01
8.268554948821289496e-01
8.268554948821289496e-01
9.320916487762179736e-01
1.002249084705610915e+00
1.022294066399723089e+00
9.220691579291618867e-01
7.366530772586239451e-01
5.111470331998615446e-01
3.758434067646040377e-01
2.305172894822904994e-01
3.507871796469635983e-02
-3.006747254116831636e-02
-1.102473993176171785e-01
-2.655960074469869148e-01
-3.257309525293235475e-01
-3.307421979528515910e-01
-3.157084616822673495e-01
-3.307421979528514799e-01
-3.557984250704918083e-01
-3.207197071057953930e-01
-2.706072528705149027e-01
-3.056859708352113181e-01
-3.006747254116832191e-01
-3.006747254116832191e-01
-2.956634799881551756e-01
-3.407646887999076779e-01
-2.555735165999307168e-01
-2.255060440587624560e-01
-1.653710989764257677e-01
-1.753935898234818547e-01
-6.013494508233668823e-02
-4.510120881175244678e-02
-1.202698901646732654e-01
-1.703823443999537557e-01
-1.002249084705610360e-01
0.000000000000000000e+00
-6.514619050586467619e-02
-9.521366304703299255e-02
-7.516868135292076314e-02
-9.020241762350494907e-02
-3.507871796469635983e-02
-3.507871796469635983e-02
-6.514619050586467619e-02
-8.519117219997690560e-02
-5.011245423528043474e-03
1.002249084705614246e-02
-8.519117219997690560e-02
-4.510120881175250229e-02
-2.004498169411222941e-02
0.000000000000000000e+00
2.505622711764027288e-02
9.020241762350500458e-02
2.505622711764027288e-02
1.052361538940891350e-01
8.017992677644886212e-02
9.521366304703304806e-02
1.052361538940891350e-01
1.152586447411452220e-01
3.507871796469635983e-02
-5.011245423528054577e-02
1.703823443999538390e-01
1.102473993176171785e-01
1.703823443999538112e-01
2.956634799881551756e-01
2.655960074469868593e-01
1.753935898234818824e-01
4.008996338822443106e-01
6.514619050586469839e-01
7.817542860703763363e-01
7.967880223409605778e-01
6.915518684468714428e-01
5.762932237057262208e-01
4.008996338822443106e-01
2.355285349058185429e-01
0.000000000000000000e+00
-7.015743592939271966e-02
-9.521366304703299255e-02
-7.015743592939271966e-02
-3.307421979528514799e-01
-1.002249084705608695e-02
-2.004498169411217390e-02
-1.553486081293696253e-01
-1.353036264352574514e-01
-1.102473993176171785e-01
-1.503373627058418593e-02
0.000000000000000000e+00
-1.052361538940891350e-01
-4.510120881175248564e-01
-7.266305864115678581e-01
-9.421141396232741716e-01
-5.011245423528053466e-01
1.157597692834980485e+00
3.758434067646040155e+00
6.344236706186516805e+00
5.417156302833826764e+00
3.402635642575548403e+00
1.979441942293581169e+00
8.218442494586007951e-01
5.512369965880858924e-02
-1.002249084705610915e-01
-9.521366304703304806e-02
-1.804048352470099537e-01
-3.407646887999076224e-01
-3.858658976116601247e-01
-3.157084616822674050e-01
-3.006747254116832746e-01
-2.756184982940428907e-01
-2.255060440587623449e-01
-1.954385715175940841e-01
-1.052361538940890795e-01
-5.011245423528043474e-03
-1.002249084705608695e-02
1.503373627058418593e-02
1.002249084705610915e-01
1.503373627058416373e-01
1.854160806705380249e-01
2.204947986352344125e-01
3.106972162587393615e-01
3.357534433763796344e-01
3.708321613410759943e-01
4.610345789645809433e-01
5.011245423528053466e-01
6.715068867527591578e-01
7.667205497997922059e-01
7.566980589527361190e-01
7.817542860703763363e-01
8.970129308115216693e-01
9.621591213173863455e-01
1.047350293517363307e+00
1.147575201987924398e+00
1.132541465717340268e+00
1.097462747752643963e+00
1.042339048093835263e+00
8.819791945409374279e-01
6.063606962468944817e-01
4.209446155763564845e-01
2.505622711764026733e-01
4.008996338822440331e-02
-1.252811355882013644e-01
-2.054610623646501710e-01
-2.706072528705149582e-01
-3.207197071057953930e-01
-3.758434067646040933e-01
-4.460008426939968129e-01
-4.409895972704687694e-01
-4.510120881175248564e-01
-4.510120881175248564e-01
-4.359783518469407260e-01
-3.808546521881321367e-01
-3.708321613410759388e-01
-3.708321613410759388e-01
-3.257309525293235475e-01
-3.457759342234357214e-01
-3.006747254116832191e-01
-2.505622711764026733e-01
-2.405397803293465864e-01
-2.455510257528746298e-01
-2.355285349058185429e-01
-1.603598535528976687e-01
-1.553486081293696253e-01
-1.453261172823135383e-01
-1.854160806705379971e-01
-1.302923810117294079e-01
-1.603598535528976687e-01
-1.302923810117294079e-01
-1.252811355882013644e-01
-1.302923810117294079e-01
-8.017992677644886212e-02
-1.302923810117294079e-01
-1.202698901646733209e-01
-1.353036264352574514e-01
-1.252811355882013644e-01
-1.252811355882013644e-01
-5.011245423528054577e-02
-7.516868135292076314e-02
-9.521366304703304806e-02
-3.507871796469641534e-02
-1.002249084705619797e-02
-5.011245423528043474e-03
-1.002249084705619797e-02
6.514619050586467619e-02
2.505622711764021737e-02
6.514619050586467619e-02
6.013494508233663272e-02
4.510120881175244678e-02
-5.011245423528043474e-03
8.519117219997685009e-02
1.002249084705608695e-02
-5.011245423528043474e-03
3.006747254116826085e-02
1.002249084705610360e-01
7.015743592939271966e-02
9.020241762350494907e-02
2.054610623646501710e-01
9.020241762350494907e-02
8.519117219997685009e-02
6.013494508233663272e-02
6.514619050586467619e-02
9.020241762350494907e-02
8.017992677644880661e-02
1.353036264352573959e-01
1.102473993176171230e-01
1.453261172823135383e-01
1.202698901646732654e-01
1.002249084705610360e-01
1.503373627058415818e-01
1.553486081293696253e-01
1.252811355882013089e-01
2.154835532117062580e-01
2.906522345646270766e-01
2.906522345646271321e-01
3.106972162587393615e-01
4.409895972704687139e-01
6.815293775998152448e-01
8.068105131880166647e-01
7.967880223409604667e-01
6.163831870939505686e-01
4.911020515057492597e-01
2.956634799881551756e-01
1.152586447411452220e-01
-7.516868135292076314e-02
-1.252811355882013089e-01
-1.002249084705610915e-01
-1.954385715175940286e-01
-1.753935898234818547e-01
-1.252811355882013089e-01
-1.904273260940660406e-01
-1.453261172823135383e-01
-1.703823443999538667e-01
-1.753935898234819102e-01
-1.403148718587854948e-01
-1.052361538940890795e-01
-2.104723077881782145e-01
-6.113719416704226362e-01
-8.469004765762411235e-01
-7.166080955645117712e-01
2.455510257528746298e-01
2.510633957187554888e+00
5.963382053998383725e+00
7.406620735974463798e+00
4.590300807951697593e+00
2.129779304999423140e+00
5.261807694704456750e-01
1.052361538940891350e-01
4.008996338822440331e-02
-5.011245423528054577e-02
-2.154835532117063135e-01
-2.906522345646270766e-01
-3.507871796469638204e-01
-3.407646887999076224e-01
-3.407646887999076224e-01
-3.407646887999076779e-01
-2.505622711764026178e-01
-1.653710989764257677e-01
-1.052361538940891350e-01
-8.519117219997696111e-02
-7.516868135292076314e-02
7.516868135292076314e-02
7.015743592939271966e-02
8.519117219997685009e-02
1.302923810117293524e-01
1.703823443999538112e-01
2.355285349058184874e-01
3.457759342234356659e-01
3.658209159175478953e-01
4.109221247293003421e-01
5.111470331998614336e-01
5.512369965880858924e-01
6.213944325174786121e-01
6.464506596351189405e-01
7.316418318350959016e-01
7.967880223409605778e-01
8.970129308115215583e-01
9.220691579291618867e-01
9.621591213173863455e-01
1.042339048093835263e+00
1.052361538940891350e+00
1.012271575552667002e+00
9.421141396232740606e-01
8.469004765762411235e-01
6.464506596351189405e-01
4.860908060822212162e-01
2.104723077881782700e-01
0.000000000000000000e+00
-1.202698901646732654e-01
-1.954385715175941396e-01
-3.708321613410759943e-01
-3.608096704940197963e-01
-3.858658976116601802e-01
-4.259558609998845280e-01
-4.059108793057723541e-01
-4.159333701528284966e-01
-3.808546521881320812e-01
-3.808546521881320812e-01
-3.407646887999076224e-01
-3.407646887999076224e-01
-3.658209159175479508e-01
-2.706072528705149027e-01
-2.455510257528745743e-01
-2.605847620234588158e-01
-2.405397803293465309e-01
-1.703823443999538112e-01
-1.703823443999538112e-01
-1.603598535528976687e-01
-1.804048352470099537e-01
-1.753935898234819102e-01
-1.353036264352574514e-01
-9.521366304703299255e-02
-1.202698901646733209e-01
-1.753935898234818547e-01
-1.202698901646733209e-01
-1.102473993176171785e-01
-1.002249084705610915e-01
-8.017992677644886212e-02
-1.302923810117294079e-01
-1.353036264352574514e-01
-1.002249084705610915e-01
-1.302923810117294079e-01
-1.403148718587855504e-01
-1.052361538940891350e-01
-9.020241762350500458e-02
-4.510120881175250229e-02
-6.514619050586473170e-02
-7.015743592939277518e-02
-1.503373627058418593e-02
-1.503373627058418593e-02
-4.510120881175250229e-02
-1.503373627058418593e-02
0.000000000000000000e+00
5.011245423528054577e-02
-1.503373627058418593e-02
-3.006747254116831636e-02
0.000000000000000000e+00
0.000000000000000000e+00
-3.006747254116837187e-02
3.507871796469635983e-02
4.510120881175247454e-02
0.000000000000000000e+00
4.008996338822443106e-02
5.011245423528043474e-03
-4.008996338822443106e-02
-5.512369965880858924e-02
-5.011245423528043474e-03
2.505622711764027288e-02
1.503373627058415818e-02
2.004498169411222941e-02
-5.011245423528043474e-03
-1.002249084705611470e-02
-1.503373627058415818e-02
-2.004498169411220165e-02
-5.011245423528043474e-03
5.011245423528071230e-03
5.011245423528054577e-02
4.008996338822443106e-02
6.013494508233666047e-02
5.512369965880860312e-02
-1.503373627058415818e-02
1.503373627058415818e-02
5.512369965880860312e-02
4.008996338822443106e-02
4.510120881175250229e-02
7.516868135292081865e-02
5.512369965880860312e-02
5.011245423528054577e-02
1.302923810117294079e-01
9.521366304703303418e-02
6.013494508233666047e-02
1.152586447411452497e-01
1.302923810117294079e-01
1.353036264352574514e-01
1.403148718587854948e-01
1.002249084705610777e-01
8.519117219997691948e-02
1.302923810117294079e-01
1.904273260940660406e-01
2.655960074469868593e-01
3.958883884587162116e-01
3.958883884587162116e-01
5.011245423528053466e-01
6.113719416704225251e-01
7.566980589527361190e-01
6.915518684468714428e-01
5.712819782821981773e-01
3.808546521881320812e-01
1.904273260940660406e-01
6.013494508233664659e-02
0.000000000000000000e+00
-5.512369965880858924e-02
-1.202698901646732932e-01
-7.015743592939276130e-02
-8.017992677644887600e-02
-1.453261172823135938e-01
-7.516868135292081865e-02
-6.013494508233666047e-02
-1.503373627058416095e-01
-1.653710989764257677e-01
-1.503373627058415818e-01
-1.152586447411452358e-01
-4.760683152351651293e-01
-8.469004765762411235e-01
-9.270804033526899302e-01
-3.608096704940199073e-01
1.763958389081874856e+00
4.825829342857515414e+00
7.997947695950773372e+00
6.559720259398222453e+00
2.766207473787485771e+00
1.232766374187901137e+00
2.204947986352343570e-01
1.403148718587855226e-01
3.006747254116832677e-02
-1.453261172823135661e-01
-2.355285349058185429e-01
-3.758434067646040377e-01
-3.307421979528515354e-01
-2.856409891410990887e-01
-2.906522345646271321e-01
-3.006747254116832191e-01
-2.204947986352343570e-01
-1.954385715175941118e-01
-1.553486081293696530e-01
-1.002249084705610638e-01
-8.519117219997690560e-02
-9.020241762350497683e-02
-5.011245423528043474e-03
9.020241762350497683e-02
1.052361538940891350e-01
1.703823443999538390e-01
2.455510257528746298e-01
2.756184982940429462e-01
3.908771430351881682e-01
5.161582786233895881e-01
5.211695240469176316e-01
6.063606962468944817e-01
6.815293775998153558e-01
7.366530772586239451e-01
8.368779857291849256e-01
1.012271575552667002e+00
1.092451502329115698e+00
1.142563956564396355e+00
1.162608938258508529e+00
1.077417766058531567e+00
1.057372784364419394e+00
1.062384029787947437e+00
9.822041030114985194e-01
7.917767769174325343e-01
5.061357877763335011e-01
2.906522345646271321e-01
1.102473993176171785e-01
-3.507871796469635983e-02
-2.255060440587624004e-01
-3.457759342234357769e-01
-4.359783518469406705e-01
-4.359783518469406705e-01
-4.810795606586931727e-01
-4.860908060822212162e-01
-4.059108793057722986e-01
-4.008996338822442551e-01
-3.758434067646040377e-01
-3.307421979528515354e-01
-4.008996338822442551e-01
-4.359783518469407260e-01
-3.557984250704918083e-01
-3.457759342234357214e-01
-3.507871796469637649e-01
-2.655960074469868593e-01
-2.906522345646271321e-01
-2.655960074469868593e-01
-2.555735165999307168e-01
-2.706072528705149027e-01
-2.706072528705149027e-01
-2.405397803293465864e-01
-2.355285349058185429e-01
-1.503373627058416373e-01
-1.102473993176171924e-01
-1.553486081293696808e-01
-2.104723077881782700e-01
-1.603598535528977242e-01
-1.553486081293696808e-01
-1.954385715175940841e-01
-1.653710989764257677e-01
-1.302923810117294079e-01
-1.102473993176171924e-01
-7.516868135292080477e-02
-9.521366304703302030e-02
-1.353036264352574514e-01
-1.403148718587854948e-01
-5.512369965880858924e-02
-1.503373627058416512e-02
-7.015743592939276130e-02
-7.015743592939276130e-02
-8.017992677644886212e-02
-8.519117219997691948e-02
-3.006747254116832330e-02
5.011245423528053883e-03
-5.011245423528053883e-03
0.000000000000000000e+00
5.512369965880858924e-02
5.512369965880859618e-02
2.505622711764026594e-02
0.000000000000000000e+00
3.006747254116831636e-02
-7.015743592939274742e-02
-2.505622711764026594e-02
2.505622711764027288e-02
-5.512369965880859618e-02
5.011245423528050413e-03
-5.011245423528050413e-03
-2.004498169411220859e-02
1.002249084705610083e-02
7.015743592939274742e-02
5.512369965880858924e-02
2.004498169411221553e-02
5.512369965880858924e-02
2.004498169411221553e-02
-2.505622711764027288e-02
5.011245423528054577e-02
1.102473993176171785e-01
5.011245423528054577e-02
5.011245423528054577e-02
5.512369965880858924e-02
0.000000000000000000e+00
2.505622711764027288e-02
1.102473993176171785e-01
1.653710989764257677e-01
1.102473993176171785e-01
1.854160806705379971e-01
1.052361538940891350e-01
9.521366304703302030e-02
8.017992677644886212e-02
7.015743592939274742e-02
9.020241762350497683e-02
1.302923810117294079e-01
8.519117219997690560e-02
6.013494508233663272e-02
9.020241762350497683e-02
7.015743592939274742e-02
5.011245423528054577e-02
3.006747254116831636e-02
2.004498169411221553e-02
0.000000000000000000e+00
5.011245423528057352e-03
-1.002249084705611470e-02
0.000000000000000000e+00
3.608096704940198518e-01
1.002249084705610083e-02
1.002249084705610083e-02
3.006747254116831636e-02
5.512369965880858924e-02
1.503373627058416095e-01
1.904273260940660406e-01
2.154835532117063135e-01
3.207197071057954485e-01
5.412145057410298055e-01
7.667205497997922059e-01
7.216193409880398146e-01
5.362032603175017620e-01
3.858658976116601247e-01
2.605847620234588158e-01
-5.011245423528057352e-03
-1.753935898234819102e-01
-1.553486081293696808e-01
-1.854160806705379971e-01
-1.703823443999538390e-01
-2.004498169411221553e-01
-2.355285349058185429e-01
-2.255060440587624004e-01
-2.104723077881782700e-01
-2.154835532117063135e-01
-1.904273260940660406e-01
-1.703823443999538390e-01
-2.655960074469868593e-01
-5.111470331998615446e-01
-9.070354216585777563e-01
-1.127530220293812002e+00
-6.715068867527591578e-01
1.107485238599700050e+00
4.099198756445948000e+00
7.947835241715493382e+00
6.434439123810021144e+00
3.557984250704918416e+00
1.708834689423066378e+00
4.159333701528284966e-01
1.753935898234819102e-01
3.006747254116833024e-02
-1.152586447411452358e-01
-2.756184982940429462e-01
-3.407646887999076224e-01
-3.407646887999076224e-01
-3.507871796469637649e-01
-3.307421979528515354e-01
-3.257309525293234920e-01
-2.405397803293465864e-01
-2.104723077881782700e-01
-2.154835532117063135e-01
-1.854160806705379971e-01
-1.804048352470099537e-01
-1.703823443999538112e-01
-1.002249084705610638e-01
-1.002249084705611470e-02
0.000000000000000000e+00
7.015743592939274742e-02
8.519117219997691948e-02
1.302923810117294079e-01
2.405397803293465864e-01
3.257309525293234920e-01
3.357534433763796344e-01
4.810795606586931727e-01
6.815293775998153558e-01
7.566980589527361190e-01
8.569229674232972105e-01
9.070354216585776452e-01
9.771928575879704759e-01
1.037327802670307220e+00
1.147575201987924398e+00
1.237777619611429181e+00
1.272856337576125707e+00
1.257822601305541355e+00
1.067395275211475481e+00
8.819791945409375389e-01
6.564731504821750274e-01
4.259558609998845835e-01
1.553486081293696808e-01
-3.006747254116831636e-02
-1.353036264352574236e-01
-2.655960074469868593e-01
-4.209446155763564290e-01
-4.460008426939967574e-01
-4.860908060822212162e-01
-4.911020515057492597e-01
-4.409895972704687139e-01
-4.710570698116370303e-01
-4.760683152351650738e-01
-4.259558609998845280e-01
-3.908771430351882792e-01
-3.808546521881320812e-01
-3.858658976116601247e-01
-3.808546521881320812e-01
-4.059108793057724096e-01
-4.059108793057724096e-01
-4.008996338822443661e-01
-3.858658976116602357e-01
-3.808546521881320812e-01
-3.056859708352113181e-01
-3.106972162587393615e-01
-3.157084616822674050e-01
-2.956634799881552311e-01
-2.706072528705149027e-01
-2.655960074469868593e-01
-2.305172894822904717e-01
-2.204947986352343847e-01
-1.954385715175941118e-01
-1.553486081293696530e-01
-1.653710989764257955e-01
-2.104723077881782978e-01
-2.104723077881782978e-01
-2.054610623646501988e-01
-1.954385715175941118e-01
-1.403148718587855226e-01
-1.052361538940891350e-01
-7.015743592939277518e-02
-1.102473993176172062e-01
-8.519117219997693335e-02
-1.052361538940891350e-01
-8.519117219997693335e-02
-6.013494508233666047e-02
-6.514619050586470395e-02
-7.015743592939277518e-02
-5.011245423528054577e-02
1.503373627058415818e-02
0.000000000000000000e+00
0.000000000000000000e+00
0.000000000000000000e+00
-5.011245423528054577e-02
0.000000000000000000e+00
3.006747254116831636e-02
0.000000000000000000e+00
-2.505622711764027288e-02
1.202698901646732932e-01
3.507871796469637371e-02
3.006747254116832330e-02
5.011245423528050413e-03
-1.503373627058415818e-02
0.000000000000000000e+00
3.507871796469637371e-02
3.507871796469637371e-02
0.000000000000000000e+00
2.655960074469868593e-01
6.013494508233664659e-02
2.505622711764026594e-02
6.514619050586470395e-02
8.519117219997691948e-02
3.006747254116832330e-02
5.512369965880858924e-02
1.152586447411452358e-01
1.052361538940891350e-01
7.015743592939274742e-02
1.102473993176171785e-01
5.011245423528053883e-02
4.008996338822443106e-02
1.102473993176171785e-01
6.514619050586470395e-02
2.505622711764027288e-02
4.008996338822443106e-02
3.006747254116832330e-02
1.152586447411452497e-01
1.804048352470099259e-01
1.503373627058416095e-01
1.653710989764257677e-01
3.307421979528515354e-01
5.612594874351420904e-01
7.166080955645117712e-01
8.118217586115448192e-01
6.614843959057031819e-01
4.610345789645809433e-01
3.257309525293234920e-01
1.503373627058416095e-01
1.002249084705610777e-02
-7.015743592939274742e-02
-1.302923810117294079e-01
-1.904273260940660406e-01
-1.703823443999538390e-01
-1.353036264352574514e-01
-1.403148718587855226e-01
-1.703823443999538390e-01
-8.017992677644886212e-02
-2.004498169411221900e-02
-4.510120881175248841e-02
-9.020241762350497683e-02
-2.455510257528746576e-01
-7.015743592939275297e-01
-1.007260330129138737e+00
-8.669454582703532974e-01
1.603598535528977242e-01
2.971668536152136220e+00
6.244011797715955048e+00
6.975653629551050727e+00
4.369806009316462792e+00
2.285127913128792709e+00
8.017992677644886212e-01
1.503373627058416095e-01
-1.002249084705610777e-02
-1.252811355882013367e-01
-3.006747254116832191e-01
-3.207197071057954485e-01
-3.207197071057954485e-01
-4.309671064234126270e-01
-4.209446155763564845e-01
-3.958883884587162671e-01
-3.457759342234357214e-01
-2.355285349058185429e-01
-1.904273260940660406e-01
-2.004498169411221553e-01
-1.653710989764257955e-01
-1.553486081293696808e-01
-1.453261172823135661e-01
-7.015743592939274742e-02
0.000000000000000000e+00
5.512369965880858924e-02
2.505622711764027288e-02
1.703823443999538390e-01
2.906522345646271321e-01
3.958883884587162116e-01
4.660458243881090423e-01
4.760683152351651293e-01
4.810795606586931727e-01
7.216193409880398146e-01
8.669454582703532974e-01
9.521366304703302585e-01
1.102473993176171785e+00
1.177642674529092659e+00
1.172631429105564616e+00
1.237777619611429403e+00
1.348025018929046359e+00
1.343013773505518316e+00
1.252811355882013311e+00
1.122518974870283959e+00
8.318667403056569931e-01
5.261807694704456750e-01
3.658209159175479508e-01
1.503373627058416095e-01
-6.514619050586467619e-02
-1.653710989764257677e-01
-2.455510257528746298e-01
-3.307421979528515910e-01
-3.056859708352112626e-01
-3.106972162587393060e-01
-3.257309525293235475e-01
-3.207197071057953930e-01
-3.056859708352112626e-01
-3.557984250704918638e-01
-3.457759342234357769e-01
-3.006747254116832746e-01
-3.056859708352112626e-01
-2.756184982940429462e-01
-2.405397803293465864e-01
-2.455510257528746298e-01
-2.355285349058185429e-01
-1.904273260940660406e-01
-1.753935898234818547e-01
-1.603598535528977242e-01
-1.703823443999538112e-01
-2.355285349058185429e-01
-2.706072528705149027e-01
-2.054610623646501710e-01
-1.152586447411452220e-01
-1.954385715175940841e-01
-1.904273260940660406e-01
-1.503373627058416095e-01
-1.403148718587855226e-01
-1.653710989764257677e-01
-1.603598535528977242e-01
-1.052361538940891073e-01
-3.006747254116831636e-02
-5.512369965880858924e-02
-7.015743592939277518e-02
-1.052361538940891628e-01
-5.512369965880858924e-02
2.505622711764027288e-02
5.011245423528043474e-03
1.503373627058415818e-02
6.514619050586467619e-02
9.020241762350497683e-02
7.015743592939274742e-02
5.011245423528043474e-03
2.505622711764027288e-02
6.013494508233663272e-02
9.020241762350497683e-02
1.503373627058416095e-01
1.904273260940660406e-01
2.455510257528746298e-01
1.453261172823135661e-01
1.102473993176171785e-01
2.305172894822904717e-01
3.207197071057954485e-01
3.157084616822674050e-01
3.507871796469637649e-01
3.006747254116832191e-01
5.211695240469176316e-01
7.667205497997922059e-01
8.519117219997691670e-01
7.917767769174324233e-01
6.865406230233433993e-01
5.562482420116139359e-01
4.109221247293004531e-01
1.102473993176171924e-01
-2.505622711764027288e-02
5.011245423528043474e-03
-7.516868135292081865e-02
-1.202698901646733209e-01
-2.054610623646502265e-01
-1.503373627058416373e-01
-1.252811355882013644e-01
-4.510120881175250229e-02
-1.553486081293696808e-01
-1.252811355882013644e-01
-1.052361538940891350e-01
1.603598535528977242e-01
-1.453261172823135661e-01
-6.414394142115908970e-01
-9.671703667409143890e-01
-8.869904399644654713e-01
1.353036264352574514e-01
2.134790550422950961e+00
5.051335386916278480e+00
6.619855204480559863e+00
3.943850148316578430e+00
2.505622711764027066e+00
1.493351136211360064e+00
3.557984250704918638e-01
-1.703823443999538112e-01
-1.152586447411452220e-01
-1.302923810117294079e-01
-1.904273260940660406e-01
-2.706072528705149027e-01
-3.157084616822674050e-01
-3.106972162587393615e-01
-2.856409891410990887e-01
-2.655960074469868593e-01
-1.904273260940660406e-01
-1.553486081293696808e-01
-1.553486081293696808e-01
-1.302923810117294079e-01
-7.516868135292081865e-02
-6.013494508233663272e-02
0.000000000000000000e+00
5.011245423528043474e-03
5.011245423528054577e-02
1.503373627058416095e-01
2.104723077881782700e-01
2.906522345646270766e-01
3.357534433763795789e-01
4.259558609998845835e-01
5.612594874351419794e-01
5.762932237057261098e-01
6.564731504821750274e-01
7.967880223409606888e-01
8.970129308115215583e-01
1.037327802670307220e+00
1.082429011482059611e+00
1.137552711140868311e+00
1.172631429105564616e+00
1.157597692834980485e+00
1.087440256905587654e+00
9.872153484350266739e-01
7.967880223409605778e-01
6.264056779410067666e-01
3.708321613410759943e-01
1.553486081293696808e-01
5.011245423528054577e-02
-1.002249084705610915e-01
-2.154835532117063135e-01
-2.555735165999307723e-01
-2.405397803293465309e-01
-3.207197071057954485e-01
-3.407646887999076224e-01
-3.357534433763795789e-01
-3.808546521881320812e-01
-3.507871796469637093e-01
-3.157084616822674050e-01
-3.006747254116832746e-01
-2.455510257528746854e-01
-1.753935898234818547e-01
-1.954385715175941396e-01
-2.104723077881782700e-01
-1.753935898234818547e-01
-1.904273260940660961e-01
-2.054610623646502265e-01
-1.954385715175940841e-01
-1.703823443999537557e-01
-8.519117219997690560e-02
-2.004498169411222941e-02
-5.011245423528043474e-03
-6.514619050586473170e-02
1.503373627058413042e-02
1.503373627058413042e-02
-8.017992677644886212e-02
-6.514619050586473170e-02
-7.015743592939277518e-02
-6.013494508233663272e-02
0.000000000000000000e+00
3.507871796469635983e-02
2.505622711764027288e-02
1.503373627058413042e-02
1.503373627058418593e-02
-1.002249084705608695e-02
5.011245423528043474e-03
8.017992677644886212e-02
8.017992677644886212e-02
4.008996338822445882e-02
1.102473993176171785e-01
1.904273260940660684e-01
2.004498169411221553e-01
3.207197071057954485e-01
5.061357877763335011e-01
6.664956413292311144e-01
7.817542860703763363e-01
8.769679491174093844e-01
7.166080955645117712e-01
5.211695240469176316e-01
4.159333701528284410e-01
1.904273260940660406e-01
1.503373627058416095e-01
0.000000000000000000e+00
-7.015743592939277518e-02
-7.516868135292081865e-02
-8.017992677644886212e-02
-7.015743592939277518e-02
-9.020241762350494907e-02
-1.553486081293696253e-01
-1.503373627058415818e-01
-1.553486081293696253e-01
-1.353036264352574514e-01
-1.503373627058413042e-02
-1.152586447411452220e-01
-2.856409891410990887e-01
-7.266305864115677471e-01
-9.822041030114986304e-01
-6.264056779410067666e-01
7.366530772586239451e-01
2.981691026999191863e+00
5.787988464174902425e+00
5.597561138080836329e+00
3.457759342234357103e+00
2.275105422281736622e+00
1.192676410799676789e+00
9.521366304703299255e-02
-8.519117219997696111e-02
-8.017992677644886212e-02
-1.403148718587855504e-01
-2.706072528705149027e-01
-2.806297437175709897e-01
-2.405397803293466419e-01
-2.605847620234588158e-01
-1.904273260940660406e-01
-1.603598535528976687e-01
-1.403148718587854948e-01
-7.015743592939277518e-02
-4.510120881175250229e-02
-4.510120881175250229e-02
-2.004498169411222941e-02
5.011245423528043474e-03
9.521366304703299255e-02
1.503373627058416095e-01
1.854160806705379971e-01
2.455510257528746298e-01
3.457759342234357214e-01
4.359783518469406705e-01
4.409895972704687139e-01
5.061357877763333901e-01
5.963382053998383947e-01
6.314169233645348100e-01
7.516868135292080755e-01
8.469004765762411235e-01
9.972378392820826498e-01
1.017282820976194824e+00
1.107485238599700050e+00
1.157597692834980485e+00
1.237777619611429181e+00
1.232766374187901359e+00
1.102473993176171785e+00
8.218442494586009062e-01
5.813044691292542643e-01
6.163831870939506796e-01
2.555735165999307168e-01
1.002249084705608695e-02
-1.252811355882013644e-01
-2.054610623646501710e-01
-3.207197071057953930e-01
-3.507871796469637649e-01
-3.608096704940198518e-01
-3.808546521881320812e-01
-4.008996338822442551e-01
-3.758434067646040377e-01
-4.309671064234126270e-01
-4.810795606586931727e-01
-4.710570698116370858e-01
-4.409895972704687139e-01
-4.309671064234126270e-01
-3.758434067646040377e-01
-3.858658976116601247e-01
-3.557984250704917528e-01
-2.956634799881551201e-01
-2.906522345646270766e-01
-3.006747254116832746e-01
-2.405397803293465309e-01
-2.355285349058184874e-01
-2.405397803293465309e-01
-1.753935898234818547e-01
-1.553486081293696808e-01
-1.954385715175940841e-01
-1.854160806705379971e-01
-9.521366304703299255e-02
-1.052361538940891350e-01
-1.653710989764257677e-01
-8.017992677644886212e-02
-6.514619050586473170e-02
-9.521366304703299255e-02
-9.521366304703299255e-02
-3.507871796469635983e-02
-1.503373627058413042e-02
-3.006747254116831636e-02
-2.004498169411222941e-02
1.503373627058413042e-02
6.013494508233663272e-02
5.011245423528043474e-03
1.002249084705608695e-02
5.011245423528054577e-02
8.017992677644886212e-02
9.020241762350494907e-02
8.519117219997690560e-02
9.020241762350494907e-02
1.302923810117293801e-01
1.854160806705379971e-01
3.407646887999076779e-01
3.307421979528515910e-01
3.357534433763796344e-01
4.460008426939968129e-01
6.865406230233433993e-01
9.020241762350497128e-01
9.120466670821057997e-01
8.769679491174094954e-01
6.464506596351189405e-01
4.810795606586931727e-01
3.307421979528515354e-01
1.453261172823135661e-01
-1.503373627058413042e-02
-2.004498169411222941e-02
-8.017992677644886212e-02
-8.519117219997690560e-02
-8.017992677644886212e-02
-1.252811355882013644e-01
-1.152586447411452220e-01
-8.017992677644886212e-02
-6.514619050586467619e-02
-6.013494508233663272e-02
0.000000000000000000e+00
-5.011245423528043474e-03
-1.653710989764257677e-01
-6.163831870939506796e-01
-9.070354216585776452e-01
-7.967880223409604667e-01
4.059108793057723541e-01
2.841376155140406645e+00
6.113719416704225473e+00
8.038037659338998608e+00
4.720593188963426279e+00
2.300161649399376618e+00
8.819791945409374279e-01
2.255060440587624282e-01
6.514619050586470395e-02
-7.015743592939277518e-02
-1.854160806705379971e-01
-2.555735165999307168e-01
-3.407646887999076779e-01
-2.956634799881551756e-01
-2.706072528705149582e-01
-3.557984250704918083e-01
-2.555735165999307168e-01
-1.954385715175940841e-01
-1.904273260940660406e-01
-1.102473993176171785e-01
-4.510120881175250229e-02
-4.510120881175250229e-02
5.011245423528043474e-03
9.521366304703302030e-02
6.514619050586470395e-02
8.017992677644886212e-02
1.854160806705379971e-01
2.756184982940429462e-01
3.307421979528515354e-01
4.259558609998845835e-01
4.760683152351651293e-01
5.612594874351420904e-01
7.115968501409837277e-01
8.168330040350727517e-01
8.769679491174094954e-01
9.771928575879704759e-01
1.082429011482059611e+00
1.137552711140868311e+00
1.197687656223204833e+00
1.297912564693765924e+00
1.282878828423181794e+00
1.262833846729069620e+00
1.102473993176171785e+00
8.218442494586009062e-01
5.963382053998385057e-01
3.207197071057954485e-01
6.013494508233668823e-02
-8.519117219997690560e-02
-2.204947986352343570e-01
-3.457759342234357769e-01
-4.159333701528284966e-01
-4.059108793057724096e-01
-3.708321613410759943e-01
-4.059108793057722986e-01
-4.059108793057723541e-01
-4.109221247293003976e-01
-4.309671064234125715e-01
-4.109221247293003976e-01
-3.708321613410759943e-01
-3.858658976116601247e-01
-3.307421979528515354e-01
-2.806297437175710452e-01
-3.557984250704918083e-01
-3.357534433763796344e-01
-2.906522345646271321e-01
-3.157084616822673495e-01
-2.856409891410990887e-01
-3.056859708352112071e-01
-2.605847620234588158e-01
-2.355285349058185429e-01
-1.353036264352574514e-01
-1.052361538940891350e-01
-1.052361538940891350e-01
-1.202698901646733209e-01
-9.521366304703304806e-02
-1.703823443999538667e-01
-9.521366304703304806e-02
-2.505622711764027288e-02
-8.519117219997696111e-02
-6.013494508233668823e-02
-7.015743592939277518e-02
-6.013494508233668823e-02
-6.013494508233668823e-02
-9.521366304703304806e-02
-1.503373627058418593e-02
0.000000000000000000e+00
3.006747254116831636e-02
3.006747254116831636e-02
5.011245423528054577e-02
1.102473993176171785e-01
3.006747254116831636e-02
1.002249084705608695e-02
8.519117219997690560e-02
9.020241762350494907e-02
8.017992677644883437e-02
1.052361538940891073e-01
1.753935898234818547e-01
9.020241762350494907e-02
1.202698901646732654e-01
1.603598535528977242e-01
2.204947986352343570e-01
2.956634799881551756e-01
4.008996338822443106e-01
4.008996338822443106e-01
4.109221247293004531e-01
6.264056779410067666e-01
8.418892311527130801e-01
8.669454582703532974e-01
8.318667403056569931e-01
6.715068867527591578e-01
4.209446155763565400e-01
4.159333701528284410e-01
1.753935898234818547e-01
0.000000000000000000e+00
-2.505622711764027288e-02
-2.505622711764027288e-02
-4.008996338822440331e-02
-5.011245423528054577e-02
-3.006747254116831636e-02
-8.519117219997690560e-02
-3.507871796469635983e-02
-2.004498169411222941e-02
-5.011245423528051801e-02
-7.015743592939274742e-02
-1.002249084705610638e-01
-1.753935898234818824e-01
-5.211695240469175205e-01
-8.569229674232970995e-01
-8.819791945409375389e-01
-1.052361538940891073e-01
2.039576887375917913e+00
5.301897658092681098e+00
8.228464985433065593e+00
5.572504910963195890e+00
2.971668536152135776e+00
1.307935055540822011e+00
2.204947986352343847e-01
9.020241762350497683e-02
-4.510120881175247454e-02
-2.655960074469868593e-01
-3.307421979528515354e-01
-3.608096704940197963e-01
-3.908771430351881682e-01
-2.956634799881551201e-01
-3.207197071057954485e-01
-3.357534433763796344e-01
-2.655960074469868037e-01
-2.054610623646502265e-01
-1.804048352470099537e-01
-9.521366304703304806e-02
-5.011245423528054577e-02
-3.006747254116831636e-02
5.011245423528051801e-02
7.015743592939274742e-02
5.512369965880856149e-02
1.152586447411452220e-01
2.255060440587624004e-01
2.706072528705149027e-01
3.557984250704918083e-01
4.860908060822212162e-01
5.662707328586700228e-01
6.163831870939506796e-01
7.516868135292080755e-01
8.418892311527130801e-01
1.032316557246779176e+00
1.097462747752643741e+00
1.137552711140868311e+00
1.137552711140868311e+00
1.207710147070260920e+00
1.282878828423181794e+00
1.237777619611429181e+00
1.152586447411452220e+00
8.719567036938813409e-01
6.013494508233664382e-01
3.708321613410759943e-01
1.904273260940660406e-01
-2.004498169411217390e-02
-1.954385715175940841e-01
-3.106972162587393615e-01
-4.159333701528284966e-01
-4.560233335410528444e-01
-4.159333701528283855e-01
-4.460008426939967574e-01
-4.710570698116370858e-01
-4.008996338822442551e-01
-4.059108793057722986e-01
-4.610345789645808878e-01
-4.359783518469406705e-01
-3.357534433763795789e-01
-3.207197071057954485e-01
-3.157084616822674050e-01
-2.756184982940429462e-01
-3.106972162587392505e-01
-3.106972162587392505e-01
-2.555735165999307723e-01
-2.706072528705149027e-01
-2.605847620234588158e-01
-2.004498169411221553e-01
-2.154835532117063135e-01
-2.605847620234588158e-01
-1.603598535528977520e-01
-1.603598535528977242e-01
-2.054610623646502265e-01
-1.403148718587854948e-01
-1.353036264352574514e-01
-1.353036264352574514e-01
-9.020241762350494907e-02
-2.104723077881782700e-01
-2.004498169411221831e-01
-1.353036264352574514e-01
-1.202698901646733209e-01
-7.015743592939277518e-02
-7.516868135292081865e-02
-5.512369965880861700e-02
-6.013494508233666047e-02
-6.013494508233666047e-02
-2.004498169411222941e-02
-1.002249084705611470e-02
1.503373627058415818e-02
5.512369965880858924e-02
4.008996338822443106e-02
-1.503373627058415818e-02
-2.505622711764027288e-02
4.008996338822443106e-02
6.013494508233666047e-02
7.015743592939276130e-02
1.353036264352574514e-01
9.020241762350497683e-02
2.004498169411222941e-02
9.020241762350497683e-02
-1.603598535528976965e-01
7.516868135292081865e-02
1.453261172823135661e-01
1.353036264352574514e-01
1.353036264352574514e-01
1.453261172823135661e-01
1.603598535528977242e-01
1.954385715175941118e-01
1.703823443999538390e-01
1.703823443999538390e-01
1.904273260940660684e-01
1.353036264352574514e-01
2.605847620234588158e-01
2.756184982940429462e-01
2.655960074469868593e-01
3.106972162587393615e-01
5.061357877763335011e-01
7.566980589527361190e-01
9.120466670821056887e-01
8.970129308115215583e-01
6.815293775998152448e-01
5.462257511645578489e-01
4.209446155763564845e-01
1.653710989764257677e-01
0.000000000000000000e+00
-9.521366304703304806e-02
-4.510120881175250229e-02
-1.002249084705611470e-02
-3.006747254116834411e-02
-4.008996338822443106e-02
-4.510120881175250229e-02
1.152586447411452220e-01
-1.052361538940891350e-01
-7.015743592939274742e-02
-4.510120881175250229e-02
-7.516868135292081865e-02
-1.302923810117294079e-01
-4.359783518469406705e-01
-9.070354216585777563e-01
-9.521366304703302585e-01
-1.954385715175940841e-01
1.763958389081874856e+00
5.392100075716186325e+00
7.717317952233202938e+00
5.382077584869129794e+00
3.021780990387416210e+00
1.202698901646732876e+00
2.906522345646271321e-01
6.013494508233663272e-02
-3.006747254116834411e-02
-1.252811355882013644e-01
-2.605847620234588158e-01
-2.706072528705149027e-01
-3.157084616822674050e-01
-3.708321613410760498e-01
-3.608096704940198518e-01
-2.655960074469868593e-01
-1.703823443999538667e-01
-1.904273260940660406e-01
-2.054610623646502265e-01
-2.104723077881782700e-01
-2.004498169411221831e-01
-9.020241762350497683e-02
-3.006747254116834411e-02
0.000000000000000000e+00
8.017992677644884825e-02
1.152586447411452220e-01
2.154835532117063135e-01
3.056859708352113181e-01
3.056859708352113181e-01
3.307421979528515354e-01
4.710570698116370858e-01
5.512369965880858924e-01
5.612594874351419794e-01
6.915518684468713317e-01
8.719567036938813409e-01
9.621591213173863455e-01
1.082429011482059611e+00
1.222743883340845050e+00
1.167620183682036572e+00
1.162608938258508529e+00
1.242788865034957446e+00
1.197687656223204833e+00
9.621591213173863455e-01
7.917767769174324233e-01
5.111470331998615446e-01
2.305172894822904717e-01
1.052361538940891350e-01
-5.011245423528054577e-02
-2.555735165999307168e-01
-3.457759342234357214e-01
-3.457759342234357214e-01
-4.259558609998845280e-01
-4.510120881175248564e-01
-3.557984250704918083e-01
-4.059108793057724096e-01
-4.209446155763565400e-01
-3.708321613410759943e-01
-4.008996338822442551e-01
-3.658209159175479508e-01
-3.207197071057954485e-01
-3.608096704940197963e-01
-3.056859708352113181e-01
-2.355285349058185151e-01
-2.455510257528746576e-01
-2.355285349058185151e-01
-1.353036264352574514e-01
-1.403148718587854948e-01
-2.756184982940429462e-01
-2.054610623646501710e-01
-1.353036264352574514e-01
-1.353036264352574514e-01
-1.252811355882013644e-01
-8.017992677644886212e-02
-1.403148718587854948e-01
-1.603598535528977242e-01
-1.152586447411452220e-01
-6.013494508233663272e-02
-5.512369965880858924e-02
0.000000000000000000e+00
-5.512369965880858924e-02
-8.017992677644886212e-02
-7.015743592939277518e-02
-5.011245423528043474e-03
2.004498169411222941e-02
7.015743592939274742e-02
-3.006747254116831636e-02
2.004498169411222941e-02
4.008996338822445882e-02
7.015743592939277518e-02
1.002249084705610915e-01
1.503373627058416373e-01
1.202698901646733209e-01
9.020241762350497683e-02
8.017992677644886212e-02
1.152586447411452497e-01
8.519117219997690560e-02
1.102473993176172062e-01
1.703823443999538667e-01
1.553486081293696808e-01
1.954385715175940841e-01
3.207197071057954485e-01
3.658209159175479508e-01
4.259558609998845835e-01
6.264056779410067666e-01
7.967880223409605778e-01
9.070354216585777563e-01
7.466755681056800320e-01
6.063606962468944817e-01
4.810795606586931727e-01
2.505622711764026733e-01
1.252811355882013367e-01
-1.503373627058418593e-02
-3.507871796469641534e-02
-2.004498169411222941e-02
-8.017992677644886212e-02
-1.252811355882013644e-01
-4.510120881175250229e-02
-7.015743592939277518e-02
-9.020241762350494907e-02
-8.017992677644886212e-02
-8.017992677644886212e-02
-4.510120881175250229e-02
0.000000000000000000e+00
-1.252811355882013644e-01
-5.311920148939737185e-01
-8.619342128468252540e-01
-6.013494508233665492e-01
3.557984250704918083e-01
2.460521502952274453e+00
5.727853519092565904e+00
6.228978061445371139e+00
3.808546521881321034e+00
2.400386557869937931e+00
1.177642674529092659e+00
2.405397803293465864e-01
-8.017992677644886212e-02
-1.503373627058413042e-02
-1.553486081293696808e-01
-1.653710989764257677e-01
-1.904273260940660406e-01
-2.255060440587624004e-01
-2.355285349058184874e-01
-1.653710989764257677e-01
-2.305172894822904439e-01
-3.357534433763795789e-01
-7.015743592939277518e-02
-2.405397803293466419e-01
-5.512369965880858924e-02
0.000000000000000000e+00
-5.512369965880858924e-02
-3.006747254116831636e-02
8.519117219997690560e-02
9.521366304703299255e-02
1.052361538940891350e-01
1.804048352470099537e-01
2.655960074469868593e-01
2.054610623646501710e-01
3.808546521881320812e-01
5.161582786233895881e-01
6.063606962468945927e-01
6.715068867527591578e-01
7.817542860703763363e-01
8.869904399644654713e-01
8.719567036938813409e-01
9.421141396232740606e-01
1.087440256905587654e+00
1.052361538940891350e+00
1.002249084705610915e+00
9.571478758938583020e-01
8.418892311527130801e-01
6.815293775998152448e-01
4.760683152351651293e-01
2.706072528705149027e-01
6.514619050586467619e-02
-1.503373627058418593e-02
-1.252811355882013644e-01
-2.305172894822904439e-01
-2.505622711764026733e-01
-2.956634799881551756e-01
-3.307421979528515910e-01
-3.608096704940198518e-01
-3.808546521881320257e-01
-3.858658976116601247e-01
-3.858658976116601247e-01
-3.908771430351881682e-01
-3.758434067646040377e-01
-3.457759342234357769e-01
-2.655960074469868593e-01
-2.405397803293466419e-01
-1.854160806705379971e-01
-2.305172894822904439e-01
-2.305172894822904439e-01
-2.004498169411221276e-01
-1.503373627058416373e-01
-1.603598535528977242e-01
-1.703823443999538667e-01
-1.703823443999538112e-01
-1.002249084705610915e-01
-6.514619050586473170e-02
-6.514619050586467619e-02
-1.252811355882013089e-01
-7.015743592939271966e-02
-2.505622711764021737e-02
-4.008996338822440331e-02
-6.013494508233663272e-02
-3.507871796469635983e-02
5.011245423528098986e-03
2.004498169411222941e-02
4.510120881175250229e-02
-5.011245423528043474e-03
-4.008996338822445882e-02
5.011245423528043474e-03
7.015743592939271966e-02
1.152586447411452220e-01
1.403148718587854948e-01
7.516868135292081865e-02
7.015743592939277518e-02
1.302923810117294079e-01
2.004498169411221553e-01
1.854160806705379971e-01
1.553486081293696808e-01
2.355285349058185429e-01
2.806297437175709897e-01
3.006747254116832191e-01
4.109221247293004531e-01
5.412145057410298055e-01
7.516868135292080755e-01
8.318667403056569931e-01
8.218442494586009062e-01
6.915518684468714428e-01
5.512369965880858924e-01
3.708321613410759943e-01
1.403148718587855226e-01
1.503373627058413042e-02
4.510120881175244678e-02
2.004498169411217390e-02
5.011245423528043474e-03
-5.011245423528043474e-03
-1.002249084705610915e-01
-1.052361538940891350e-01
-3.507871796469635983e-02
-8.519117219997690560e-02
-1.202698901646732654e-01
-3.507871796469635983e-02
-2.004498169411217390e-02
-1.052361538940890795e-01
-4.059108793057723541e-01
-8.068105131880165537e-01
-8.920016853879935148e-01
-3.357534433763796344e-01
1.062384029787947437e+00
3.833602748998961474e+00
6.429427878386492878e+00
5.051335386916278480e+00
3.046837217505056650e+00
1.859172052128908126e+00
7.767430406468482929e-01
-3.507871796469635983e-02
-1.353036264352574514e-01
-9.020241762350494907e-02
-1.403148718587854948e-01
-3.157084616822673495e-01
-3.006747254116832191e-01
-3.056859708352112626e-01
-3.006747254116832191e-01
-2.305172894822904994e-01
-2.054610623646501710e-01
-1.904273260940660406e-01
-1.453261172823135938e-01
-1.353036264352573959e-01
-1.353036264352573959e-01
-5.011245423528054577e-02
-1.002249084705608695e-02
1.002249084705614246e-02
2.505622711764027288e-02
9.020241762350500458e-02
1.152586447411452220e-01
1.954385715175941118e-01
3.106972162587393060e-01
3.307421979528515354e-01
4.008996338822443106e-01
5.311920148939737185e-01
6.514619050586469839e-01
6.915518684468714428e-01
7.917767769174324233e-01
8.920016853879935148e-01
9.320916487762180846e-01
1.037327802670307220e+00
1.052361538940891350e+00
1.007260330129138737e+00
1.007260330129138737e+00
9.371028941997461281e-01
7.817542860703764473e-01
4.560233335410528999e-01
2.706072528705149027e-01
-4.510120881175250229e-02
-1.102473993176171785e-01
-1.854160806705379416e-01
-2.505622711764026178e-01
-3.207197071057954485e-01
-3.507871796469637093e-01
-4.359783518469406705e-01
-5.161582786233894771e-01
-5.161582786233894771e-01
-5.111470331998614336e-01
-5.261807694704456750e-01
-5.061357877763333901e-01
-4.209446155763565400e-01
-4.359783518469406705e-01
-4.610345789645809433e-01
-4.059108793057723541e-01
-4.409895972704687694e-01
-4.309671064234125715e-01
-3.457759342234357214e-01
-3.557984250704918083e-01
-3.708321613410759388e-01
-3.457759342234357214e-01
-3.056859708352112626e-01
-3.056859708352112626e-01
-2.756184982940428907e-01
-2.305172894822904994e-01
-2.305172894822904994e-01
-1.954385715175940841e-01
-1.954385715175940841e-01
-2.004498169411221276e-01
-1.904273260940660406e-01
-1.453261172823135383e-01
-2.054610623646501710e-01
-1.703823443999537557e-01
-1.152586447411451664e-01
-1.102473993176171230e-01
-1.052361538940890795e-01
-1.152586447411451664e-01
-1.603598535528976687e-01
-1.252811355882013644e-01
-1.152586447411451664e-01
-8.017992677644886212e-02
-1.202698901646733209e-01
0.000000000000000000e+00
3.006747254116837187e-02
-3.006747254116831636e-02
-3.507871796469635983e-02
0.000000000000000000e+00
1.002249084705614246e-02
-1.503373627058418593e-02
0.000000000000000000e+00
-5.011245423528054577e-02
3.507871796469635983e-02
4.510120881175250229e-02
0.000000000000000000e+00
-5.011245423528054577e-02
5.011245423528043474e-03
-3.006747254116831636e-02
3.006747254116834411e-02
4.008996338822445882e-02
0.000000000000000000e+00
-2.505622711764030064e-02
2.505622711764027288e-02
0.000000000000000000e+00
5.011245423528071230e-03
5.011245423528043474e-03
-5.011245423528071230e-03
-8.017992677644886212e-02
3.507871796469638759e-02
6.514619050586470395e-02
3.006747254116831636e-02
5.512369965880858924e-02
1.002249084705610638e-01
4.008996338822443106e-02
3.006747254116831636e-02
9.020241762350496295e-02
1.002249084705610777e-01
8.017992677644886212e-02
1.553486081293696808e-01
1.453261172823135383e-01
1.353036264352574514e-01
2.154835532117063135e-01
2.605847620234588158e-01
2.906522345646271321e-01
3.357534433763795789e-01
4.911020515057492597e-01
7.466755681056800320e-01
8.318667403056569931e-01
9.170579125056337322e-01
6.965631138703993752e-01
5.161582786233895881e-01
3.507871796469637649e-01
1.453261172823135661e-01
0.000000000000000000e+00
-5.011245423528053189e-02
-5.512369965880860312e-02
-5.011245423528057352e-03
-4.510120881175248841e-02
-6.514619050586469007e-02
-7.015743592939276130e-02
-6.514619050586469007e-02
-4.510120881175248841e-02
-7.015743592939274742e-02
-8.017992677644886212e-02
-1.002249084705611470e-02
-1.002249084705610915e-01
-4.911020515057492597e-01
-8.017992677644886212e-01
-8.268554948821289496e-01
-1.202698901646733071e-01
2.545712675152251414e+00
5.547448683845555450e+00
8.063093886456638160e+00
5.687763555704340668e+00
2.615870111081644467e+00
1.157597692834980485e+00
2.706072528705149027e-01
6.514619050586470395e-02
-6.514619050586469007e-02
-1.553486081293696808e-01
-2.655960074469868593e-01
-2.756184982940429462e-01
-2.655960074469868593e-01
-3.157084616822674050e-01
-2.706072528705149027e-01
-2.555735165999307723e-01
-2.154835532117063412e-01
-1.703823443999538390e-01
-1.703823443999538112e-01
-4.008996338822444494e-02
2.004498169411221553e-02
2.505622711764025901e-02
7.015743592939274742e-02
1.453261172823135661e-01
1.453261172823135661e-01
2.505622711764026733e-01
3.106972162587393615e-01
3.658209159175479508e-01
4.159333701528284966e-01
5.111470331998615446e-01
5.863157145527823078e-01
6.664956413292311144e-01
8.218442494586009062e-01
9.170579125056337322e-01
9.721816121644424324e-01
1.072406520635003524e+00
1.157597692834980485e+00
1.157597692834980485e+00
1.312946300964350055e+00
1.322968791811406364e+00
1.272856337576125707e+00
1.262833846729069620e+00
1.082429011482059611e+00
8.569229674232972105e-01
5.111470331998614336e-01
3.157084616822674050e-01
9.521366304703302030e-02
-6.514619050586470395e-02
-2.104723077881782700e-01
-3.257309525293234920e-01
-3.608096704940198518e-01
-3.908771430351881682e-01
-3.958883884587162116e-01
-4.109221247293003421e-01
-3.557984250704918083e-01
-3.507871796469637649e-01
-3.808546521881320812e-01
-3.157084616822674050e-01
-3.207197071057954485e-01
-3.207197071057954485e-01
-2.655960074469868593e-01
-2.655960074469868593e-01
-2.655960074469868593e-01
-2.455510257528746298e-01
-1.804048352470099259e-01
-2.154835532117063135e-01
-1.904273260940660406e-01
-1.854160806705379971e-01
-1.954385715175940841e-01
-1.453261172823135661e-01
-9.521366304703302030e-02
-1.453261172823135661e-01
-1.252811355882013367e-01
-1.002249084705610638e-01
-1.453261172823135661e-01
-1.503373627058416095e-01
-9.521366304703302030e-02
-1.102473993176171785e-01
-1.102473993176171785e-01
-2.054610623646501988e-01
-1.553486081293696530e-01
-1.252811355882013367e-01
-8.017992677644886212e-02
-7.516868135292080477e-02
-8.017992677644886212e-02
-4.510120881175248841e-02
-3.507871796469637371e-02
-8.519117219997690560e-02
-7.015743592939274742e-02
-5.011245423528053883e-03
0.000000000000000000e+00
-1.503373627058416165e-02
0.000000000000000000e+00
4.008996338822443106e-02
3.006747254116832330e-02
6.514619050586469007e-02
1.002249084705610950e-02
-4.510120881175248148e-02
4.510120881175247454e-02
7.015743592939274742e-02
0.000000000000000000e+00
0.000000000000000000e+00
1.503373627058415818e-02
-8.519117219997691948e-02
-4.008996338822443106e-02
1.052361538940891350e-01
-1.002249084705610083e-02
3.507871796469638759e-02
0.000000000000000000e+00
-2.004498169411221553e-02
-5.011245423528053883e-02
3.507871796469637371e-02
5.011245423528053189e-02
4.008996338822443106e-02
3.507871796469637371e-02
-1.503373627058415818e-02
-9.521366304703302030e-02
-2.004498169411221553e-02
5.011245423528057352e-03
5.011245423528057352e-03
2.004498169411221553e-02
-1.503373627058415818e-02
2.004498169411221553e-02
1.503373627058415818e-02
-2.555735165999307723e-01
-1.503373627058415818e-02
1.002249084705610083e-02
2.004498169411221553e-02
5.011245423528057352e-03
4.008996338822441718e-02
4.510120881175248841e-02
1.102473993176171924e-01
4.510120881175248841e-02
4.510120881175248841e-02
4.510120881175248841e-02
-3.507871796469638065e-02
1.002249084705610083e-02
3.006747254116833024e-02
4.008996338822441718e-02
3.507871796469637371e-02
5.011245423528057352e-03
-3.507871796469638065e-02
3.507871796469637371e-02
1.002249084705610083e-02
3.507871796469637371e-02
4.008996338822441718e-02
9.521366304703303418e-02
0.000000000000000000e+00
-1.503373627058415818e-02
2.505622711764027288e-02
3.507871796469637371e-02
5.011245423528053189e-02
1.954385715175940841e-01
2.405397803293465864e-01
2.204947986352343570e-01
2.255060440587624004e-01
4.309671064234126270e-01
5.712819782821981773e-01
6.514619050586469839e-01
6.213944325174786121e-01
5.111470331998614336e-01
3.557984250704918083e-01
2.104723077881782700e-01
5.512369965880857536e-02
-7.516868135292080477e-02
-1.302923810117294079e-01
-9.521366304703302030e-02
-1.202698901646732932e-01
-1.453261172823135661e-01
-1.904273260940660406e-01
-2.204947986352343570e-01
-2.154835532117063135e-01
-2.405397803293465864e-01
-2.455510257528746298e-01
-1.904273260940660406e-01
-1.503373627058416373e-01
-5.662707328586700228e-01
-9.220691579291618867e-01
-1.072406520635003524e+00
-6.915518684468714428e-01
1.287890073846709837e+00
4.460008426939968018e+00
7.837587842397875981e+00
7.015743592939275075e+00
3.588051723246086233e+00
1.618632271799561373e+00
3.958883884587162671e-01
1.002249084705610777e-01
-8.017992677644886212e-02
-3.056859708352112626e-01
-3.958883884587162671e-01
-4.961132969292773032e-01
-5.161582786233895881e-01
-4.460008426939968129e-01
-4.460008426939968129e-01
-4.660458243881089313e-01
-3.958883884587162116e-01
-3.157084616822674050e-01
-3.056859708352112626e-01
-3.106972162587393060e-01
-2.405397803293465864e-01
-1.954385715175941118e-01
-1.102473993176171785e-01
-8.017992677644886212e-02
-5.512369965880861700e-02
0.000000000000000000e+00
5.011245423528054577e-02
1.202698901646733071e-01
1.603598535528977242e-01
2.856409891410990887e-01
3.708321613410759943e-01
4.660458243881090423e-01
4.961132969292773587e-01
5.913269599763103512e-01
6.464506596351189405e-01
8.168330040350728627e-01
9.872153484350265629e-01
1.007260330129138737e+00
1.042339048093835263e+00
1.087440256905587654e+00
1.122518974870283959e+00
1.112496484023227872e+00
1.077417766058531567e+00
8.669454582703532974e-01
5.813044691292541533e-01
3.608096704940198518e-01
1.503373627058416095e-01
-2.004498169411222941e-02
-2.054610623646501710e-01
-2.906522345646271321e-01
-3.708321613410760498e-01
-3.658209159175478953e-01
-4.911020515057493152e-01
-5.261807694704456750e-01
-4.610345789645809433e-01
-4.209446155763565400e-01
-4.810795606586931727e-01
-4.610345789645809988e-01
-3.758434067646040377e-01
-3.557984250704918083e-01
-3.557984250704918083e-01
-3.457759342234357214e-01
-3.056859708352112626e-01
-2.706072528705148472e-01
-2.706072528705148472e-01
-2.706072528705148472e-01
-2.706072528705148472e-01
-2.555735165999307168e-01
-1.954385715175940841e-01
-1.753935898234818547e-01
-1.603598535528976965e-01
-1.653710989764257400e-01
-1.603598535528976965e-01
-1.753935898234818824e-01
-2.154835532117062857e-01
-2.555735165999307723e-01
-2.154835532117062857e-01
-1.553486081293696530e-01
-1.603598535528976965e-01
-1.252811355882013367e-01
-8.017992677644883437e-02
-1.503373627058416095e-01
-1.152586447411452497e-01
-1.052361538940891073e-01
-1.503373627058416095e-01
-1.403148718587855226e-01
-6.514619050586470395e-02
-1.052361538940891073e-01
-1.603598535528976965e-01
-1.503373627058416095e-01
-7.516868135292079089e-02
-9.020241762350497683e-02
0.000000000000000000e+00
5.011245423528071230e-03
-5.011245423528043474e-03
-5.011245423528071230e-03
5.011245423528043474e-03
0.000000000000000000e+00
0.000000000000000000e+00
5.011245423528071230e-03
-1.002249084705611470e-02
0.000000000000000000e+00
5.011245423528054577e-02
6.013494508233663272e-02
-1.503373627058418593e-02
-1.002249084705608695e-02
-5.011245423528071230e-03
2.004498169411220165e-02
-1.503373627058415818e-02
4.510120881175247454e-02
5.512369965880857536e-02
8.519117219997690560e-02
7.015743592939274742e-02
2.505622711764025901e-02
4.510120881175248841e-02
8.519117219997691948e-02
4.510120881175248841e-02
4.510120881175248841e-02
9.521366304703302030e-02
6.514619050586470395e-02
-2.505622711764025901e-02
5.011245423528053883e-02
1.302923810117294079e-01
5.512369965880858924e-02
1.152586447411452497e-01
6.514619050586470395e-02
5.011245423528054577e-02
1.703823443999538390e-01
2.405397803293465864e-01
2.355285349058185429e-01
2.956634799881551756e-01
4.460008426939968129e-01
6.514619050586469839e-01
7.566980589527361190e-01
7.617093043762641624e-01
6.614843959057030709e-01
5.311920148939737185e-01
3.958883884587162671e-01
6.514619050586470395e-02
-6.514619050586469007e-02
-4.510120881175248841e-02
-4.008996338822443106e-02
-9.521366304703302030e-02
-1.403148718587854948e-01
-9.521366304703302030e-02
-1.302923810117294079e-01
-8.017992677644886212e-02
-1.603598535528977242e-01
-1.854160806705379971e-01
-1.202698901646732793e-01
-5.011245423528054577e-02
-2.505622711764026733e-01
-6.765181321762873123e-01
-8.218442494586009062e-01
-6.965631138703994862e-01
2.355285349058185429e-01
2.736140001246317510e+00
5.652684837739644585e+00
6.484551578045301135e+00
4.209446155763564512e+00
2.310184140246432705e+00
1.277867582999653751e+00
3.056859708352112626e-01
-1.503373627058416165e-02
-5.011245423528053883e-02
-1.503373627058416095e-01
-1.453261172823135661e-01
-2.054610623646502265e-01
-2.455510257528746298e-01
-3.056859708352113181e-01
-2.605847620234588158e-01
-2.355285349058185429e-01
-1.553486081293696808e-01
-1.453261172823135661e-01
-8.519117219997690560e-02
-6.514619050586470395e-02
-5.011245423528053189e-02
-5.011245423528057352e-03
0.000000000000000000e+00
0.000000000000000000e+00
6.514619050586470395e-02
1.403148718587855226e-01
2.054610623646501988e-01
2.906522345646270766e-01
3.758434067646040377e-01
4.560233335410528444e-01
5.211695240469176316e-01
6.264056779410066556e-01
7.316418318350957906e-01
7.266305864115677471e-01
8.519117219997691670e-01
1.007260330129138737e+00
1.092451502329115698e+00
1.102473993176171785e+00
1.107485238599699828e+00
1.157597692834980485e+00
1.207710147070260920e+00
1.062384029787947437e+00
8.819791945409375389e-01
7.266305864115678581e-01
4.710570698116369748e-01
2.806297437175709897e-01
2.004498169411222941e-02
-1.403148718587855226e-01
-1.954385715175940841e-01
-2.405397803293465864e-01
-3.658209159175479508e-01
-4.409895972704687139e-01
-4.059108793057723541e-01
-3.808546521881320812e-01
-3.858658976116601247e-01
-4.159333701528284966e-01
-3.608096704940199073e-01
-2.906522345646271321e-01
-2.706072528705149027e-01
-3.006747254116832191e-01
-2.856409891410990332e-01
-2.956634799881551201e-01
-2.856409891410990332e-01
-2.505622711764027288e-01
-2.305172894822904717e-01
-2.054610623646501988e-01
-1.603598535528977242e-01
-3.307421979528515354e-01
-1.904273260940660406e-01
-1.052361538940891350e-01
-9.521366304703304806e-02
-1.052361538940891350e-01
-6.514619050586467619e-02
0.000000000000000000e+00
-6.013494508233663272e-02
-5.011245423528054577e-02
-5.011245423528054577e-02
-5.011245423528054577e-02
-1.152586447411452220e-01
-1.703823443999538667e-01
1.503373627058418593e-02
-1.503373627058413042e-02
5.011245423528054577e-02
6.514619050586473170e-02
5.512369965880858924e-02
1.503373627058415818e-01
1.453261172823135383e-01
1.152586447411451664e-01
5.011245423528049026e-02
6.514619050586467619e-02
8.017992677644886212e-02
1.202698901646733209e-01
1.453261172823135383e-01
1.102473993176171785e-01
6.514619050586467619e-02
8.519117219997690560e-02
1.503373627058415818e-01
1.403148718587854948e-01
1.202698901646733209e-01
1.804048352470099537e-01
1.152586447411451664e-01
1.403148718587854948e-01
1.954385715175940841e-01
2.255060440587623449e-01
2.405397803293465864e-01
3.407646887999076779e-01
4.359783518469406149e-01
6.264056779410067666e-01
8.017992677644887323e-01
8.669454582703532974e-01
7.166080955645117712e-01
6.314169233645348100e-01
3.758434067646039822e-01
1.403148718587854948e-01
0.000000000000000000e+00
-9.521366304703304806e-02
-1.553486081293696808e-01
1.403148718587854948e-01
-1.603598535528977520e-01
-2.405397803293466141e-01
-4.008996338822443106e-01
-1.804048352470099537e-01
-2.104723077881782978e-01
-1.553486081293696808e-01
-7.516868135292079089e-02
-1.353036264352574514e-01
-8.519117219997690560e-02
-2.255060440587624282e-01
-9.120466670821057997e-01
-9.020241762350497128e-01
-6.163831870939506796e-01
6.113719416704225251e-01
3.377579415457907963e+00
6.289113006527707661e+00
5.878190881798407652e+00
3.482815569351997098e+00
1.939351978905356821e+00
7.767430406468482929e-01
-8.017992677644886212e-02
-2.505622711764026733e-01
-2.255060440587624282e-01
-3.507871796469637649e-01
-3.808546521881320812e-01
-3.808546521881320812e-01
-4.460008426939968129e-01
-4.810795606586931727e-01
-4.059108793057723541e-01
-3.658209159175479508e-01
-2.856409891410990332e-01
-1.954385715175940841e-01
-1.753935898234818824e-01
-2.054610623646502265e-01
-1.403148718587854948e-01
-6.514619050586469007e-02
-4.510120881175248148e-02
2.505622711764026594e-02
4.510120881175248148e-02
9.521366304703302030e-02
1.503373627058416373e-01
2.505622711764026733e-01
2.806297437175709897e-01
3.357534433763795789e-01
4.259558609998845835e-01
4.510120881175248564e-01
5.662707328586701339e-01
6.113719416704226362e-01
7.566980589527361190e-01
8.368779857291850366e-01
9.320916487762180846e-01
9.170579125056338432e-01
1.002249084705610693e+00
9.320916487762179736e-01
8.569229674232972105e-01
6.213944325174787231e-01
4.008996338822443106e-01
1.553486081293696808e-01
0.000000000000000000e+00
0.000000000000000000e+00
-1.353036264352573959e-01
-4.510120881175239127e-02
-1.753935898234818547e-01
-1.904273260940659851e-01
-2.255060440587624004e-01
-2.505622711764026178e-01
-2.605847620234587048e-01
-2.806297437175709897e-01
-3.056859708352112071e-01
-2.305172894822904439e-01
-2.004498169411220720e-01
-2.255060440587624004e-01
-2.605847620234587048e-01
-2.154835532117063135e-01
-2.255060440587624004e-01
-2.204947986352343570e-01
-1.403148718587854393e-01
-1.453261172823134828e-01
-1.252811355882013089e-01
-7.015743592939271966e-02
-6.013494508233663272e-02
-1.002249084705609805e-01
-2.505622711764021737e-02
-4.510120881175239127e-02
-4.008996338822434780e-02
-1.002249084705608695e-02
-2.505622711764021737e-02
-7.516868135292076314e-02
-9.020241762350489356e-02
-7.015743592939271966e-02
-7.516868135292076314e-02
-6.013494508233663272e-02
-4.008996338822434780e-02
-9.020241762350489356e-02
-6.013494508233663272e-02
-4.008996338822434780e-02
-5.512369965880858924e-02
-5.512369965880858924e-02
-2.505622711764032839e-02
-3.006747254116837187e-02
-2.505622711764032839e-02
2.004498169411217390e-02
-1.503373627058424145e-02
-2.004498169411228492e-02
5.512369965880858924e-02
5.011245423528054577e-02
0.000000000000000000e+00
6.514619050586478721e-02
6.514619050586478721e-02
-1.503373627058413042e-02
6.013494508233663272e-02
6.514619050586478721e-02
6.013494508233663272e-02
7.015743592939283069e-02
6.514619050586478721e-02
7.516868135292087416e-02
9.020241762350500458e-02
1.152586447411452775e-01
-1.503373627058413042e-02
1.002249084705610915e-01
1.202698901646733209e-01
1.002249084705610915e-01
1.202698901646733209e-01
1.002249084705610915e-01
-9.521366304703293704e-02
8.519117219997696111e-02
1.353036264352575069e-01
2.355285349058185429e-01
7.015743592939283069e-02
1.002249084705610915e-01
1.453261172823135938e-01
2.255060440587624560e-01
2.305172894822904994e-01
2.756184982940430017e-01
3.407646887999077334e-01
5.562482420116140469e-01
7.065856047174556842e-01
7.717317952233203604e-01
7.566980589527361190e-01
6.264056779410066556e-01
3.858658976116601247e-01
2.255060440587624004e-01
6.013494508233663272e-02
-8.519117219997696111e-02
-1.603598535528977242e-01
-1.653710989764257677e-01
-1.403148718587855504e-01
-1.753935898234819657e-01
-1.603598535528977242e-01
-1.904273260940659851e-01
-2.605847620234587048e-01
-2.204947986352343570e-01
-1.904273260940659851e-01
-1.603598535528977242e-01
-2.154835532117063135e-01
-3.207197071057954485e-01
-7.166080955645117712e-01
-1.027305311823251133e+00
-8.469004765762411235e-01
2.104723077881782145e-01
2.580791393116947496e+00
5.747898500786678078e+00
7.045811065480443780e+00
4.219468646610621931e+00
2.214970477199399657e+00
8.769679491174093844e-01
3.006747254116837187e-02
-1.002249084705610915e-01
-1.202698901646732654e-01
-2.305172894822904439e-01
-3.357534433763795789e-01
-3.457759342234356659e-01
-3.758434067646040377e-01
-4.510120881175249119e-01
-3.207197071057954485e-01
-2.956634799881551201e-01
-2.154835532117063135e-01
-1.804048352470098981e-01
-1.353036264352575069e-01
-8.519117219997696111e-02
-6.013494508233663272e-02
0.000000000000000000e+00
-9.020241762350500458e-02
-2.505622711764021737e-02
8.519117219997696111e-02
1.854160806705379416e-01
2.655960074469868593e-01
3.157084616822674050e-01
2.806297437175709897e-01
3.357534433763796344e-01
4.610345789645809433e-01
5.612594874351419794e-01
7.065856047174555732e-01
8.268554948821289496e-01
9.371028941997461281e-01
9.872153484350265629e-01
1.092451502329115698e+00
1.212721392493789185e+00
1.242788865034957446e+00
1.287890073846709837e+00
1.237777619611429181e+00
1.077417766058531567e+00
8.569229674232972105e-01
6.664956413292312254e-01
2.856409891410990332e-01
1.603598535528977242e-01
-1.252811355882014199e-01
-2.906522345646271877e-01
-3.858658976116601247e-01
-4.359783518469407815e-01
-5.863157145527823078e-01
-5.813044691292542643e-01
-5.512369965880858924e-01
-5.512369965880858924e-01
-5.813044691292543753e-01
-5.061357877763335011e-01
-5.061357877763335011e-01
-5.061357877763333901e-01
-4.460008426939968129e-01
-4.008996338822443106e-01
-4.059108793057723541e-01
-3.207197071057954485e-01
-3.357534433763795789e-01
-3.357534433763795789e-01
-3.357534433763796344e-01
-2.706072528705148472e-01
-2.956634799881552311e-01
-2.856409891410990332e-01
-2.255060440587624004e-01
-2.054610623646502265e-01
-1.804048352470098981e-01
-1.102473993176171785e-01
-1.252811355882013089e-01
-1.302923810117294634e-01
-1.152586447411452220e-01
-1.152586447411452220e-01
-1.002249084705610915e-01
-7.015743592939277518e-02
-7.015743592939277518e-02
-8.017992677644886212e-02
-3.507871796469641534e-02
-1.503373627058418593e-02
-3.006747254116831636e-02
0.000000000000000000e+00
0.000000000000000000e+00
0.000000000000000000e+00
1.002249084705608695e-02
5.011245423528043474e-03
0.000000000000000000e+00
-1.503373627058413042e-02
1.503373627058415818e-02
5.011245423528043474e-03
-1.503373627058415818e-02
-5.011245423528043474e-03
0.000000000000000000e+00
0.000000000000000000e+00
5.011245423528057352e-03
2.004498169411221553e-02
3.006747254116832330e-02
0.000000000000000000e+00
0.000000000000000000e+00
-5.512369965880859618e-02
0.000000000000000000e+00
2.004498169411221553e-02
4.510120881175248148e-02
5.011245423528053883e-03
-2.004498169411221553e-02
-4.008996338822443106e-02
5.011245423528050413e-03
3.507871796469637371e-02
8.017992677644886212e-02
0.000000000000000000e+00
0.000000000000000000e+00
3.006747254116833024e-02
-7.516868135292081865e-02
-7.516868135292081865e-02
-1.002249084705610083e-02
1.503373627058415818e-02
1.002249084705611470e-02
9.521366304703302030e-02
1.503373627058415818e-02
3.507871796469638759e-02
3.507871796469638759e-02
0.000000000000000000e+00
1.002249084705611470e-02
5.512369965880858924e-02
9.020241762350497683e-02
7.015743592939274742e-02
1.152586447411452497e-01
1.052361538940891350e-01
9.521366304703302030e-02
9.521366304703302030e-02
1.202698901646733209e-01
1.052361538940891350e-01
1.102473993176171785e-01
1.603598535528977242e-01
1.302923810117294079e-01
1.904273260940660406e-01
2.305172894822904994e-01
2.405397803293465864e-01
3.157084616822674050e-01
3.507871796469637649e-01
3.207197071057954485e-01
4.810795606586931172e-01
7.266305864115678581e-01
8.368779857291850366e-01
8.469004765762411235e-01
7.817542860703763363e-01
6.664956413292311144e-01
4.059108793057723541e-01
1.954385715175940841e-01
3.507871796469638759e-02
-5.011245423528043474e-03
1.002249084705611470e-02
-2.004498169411221553e-02
5.011245423528043474e-03
5.011245423528043474e-03
-5.011245423528043474e-03
-1.503373627058415818e-02
-4.510120881175248841e-02
-3.507871796469637371e-02
0.000000000000000000e+00
-2.505622711764027288e-02
-1.102473993176171785e-01
-5.512369965880858924e-01
-8.769679491174093844e-01
-8.268554948821289496e-01
6.514619050586470395e-02
2.325217876517017057e+00
5.647673592316116320e+00
8.363768611868321656e+00
5.372055094022073263e+00
2.821331173446294471e+00
1.217732637917317007e+00
1.102473993176171785e-01
-5.512369965880858924e-02
-1.603598535528977242e-01
-3.758434067646040377e-01
-4.810795606586931727e-01
-5.311920148939737185e-01
-5.111470331998615446e-01
-5.362032603175017620e-01
-4.911020515057492597e-01
-4.911020515057492597e-01
-5.111470331998615446e-01
-4.510120881175248564e-01
-4.209446155763565400e-01
-4.309671064234126270e-01
-3.608096704940198518e-01
-2.505622711764027288e-01
-2.004498169411221553e-01
-1.302923810117294079e-01
-8.017992677644886212e-02
-9.020241762350497683e-02
8.017992677644886212e-02
1.854160806705379971e-01
2.505622711764027288e-01
3.157084616822674050e-01
4.259558609998845835e-01
4.710570698116370858e-01
5.261807694704456750e-01
6.865406230233432883e-01
7.516868135292080755e-01
7.817542860703763363e-01
9.170579125056339542e-01
1.022294066399723089e+00
1.092451502329115698e+00
1.127530220293812224e+00
1.137552711140868311e+00
1.047350293517363307e+00
8.268554948821289496e-01
6.364281687880628535e-01
3.307421979528515354e-01
1.553486081293696808e-01
-2.505622711764027288e-02
-1.954385715175940286e-01
-3.608096704940199073e-01
-4.911020515057492597e-01
-4.660458243881089313e-01
-4.810795606586931727e-01
-4.961132969292773032e-01
-4.710570698116370858e-01
-5.011245423528053466e-01
-4.660458243881089313e-01
-4.560233335410528444e-01
-4.460008426939967574e-01
-3.808546521881320812e-01
-3.958883884587162116e-01
-4.309671064234126270e-01
-3.557984250704917528e-01
-2.756184982940429462e-01
-3.257309525293234920e-01
-3.457759342234356659e-01
-2.856409891410990332e-01
-2.405397803293465309e-01
-2.806297437175709897e-01
-2.255060440587624004e-01
-2.305172894822904439e-01
-2.455510257528745743e-01
-1.804048352470098981e-01
-1.152586447411452220e-01
-5.011245423528049026e-02
-1.202698901646732654e-01
-1.152586447411452220e-01
-1.603598535528977242e-01
-1.453261172823135383e-01
-1.453261172823135383e-01
-1.954385715175940286e-01
-1.152586447411452220e-01
-9.020241762350494907e-02
-1.403148718587854948e-01
-1.403148718587854948e-01
-4.008996338822440331e-02
-4.510120881175244678e-02
-8.017992677644886212e-02
-5.512369965880858924e-02
-2.505622711764027288e-02
2.004498169411222941e-02
2.505622711764027288e-02
-4.008996338822440331e-02
-4.008996338822440331e-02
-3.006747254116831636e-02
-2.004498169411217390e-02
-2.004498169411222941e-02
5.011245423528043474e-03
2.004498169411222941e-02
2.004498169411222941e-02
2.004498169411217390e-02
4.510120881175247454e-02
5.011245423528043474e-03
-2.505622711764027288e-02
1.503373627058418593e-02
-1.503373627058413042e-02
-1.503373627058413042e-02
6.013494508233666047e-02
6.514619050586473170e-02
-5.512369965880858924e-02
-1.503373627058418593e-02
6.514619050586467619e-02
5.011245423528054577e-02
2.505622711764027288e-02
-1.002249084705608695e-02
-2.505622711764027288e-02
5.512369965880858924e-02
9.020241762350497683e-02
8.017992677644886212e-02
-1.503373627058418593e-02
-1.503373627058418593e-02
4.510120881175247454e-02
8.519117219997690560e-02
1.302923810117294079e-01
4.510120881175247454e-02
4.510120881175247454e-02
7.015743592939274742e-02
5.512369965880858924e-02
7.015743592939274742e-02
1.202698901646732932e-01
9.020241762350497683e-02
6.013494508233666047e-02
7.015743592939274742e-02
1.052361538940891350e-01
6.013494508233666047e-02
1.302923810117294079e-01
1.653710989764257677e-01
1.503373627058416095e-01
8.519117219997690560e-02
1.252811355882013644e-01
1.603598535528977242e-01
1.904273260940660406e-01
1.252811355882013367e-01
6.514619050586470395e-02
1.653710989764257677e-01
1.904273260940660406e-01
2.756184982940429462e-01
2.906522345646271321e-01
2.806297437175709897e-01
4.259558609998845835e-01
5.813044691292542643e-01
7.216193409880398146e-01
7.717317952233203604e-01
6.514619050586469839e-01
4.810795606586931727e-01
3.307421979528515354e-01
8.519117219997693335e-02
-7.015743592939274742e-02
-5.011245423528054577e-02
-6.013494508233663272e-02
-1.052361538940891350e-01
-9.020241762350494907e-02
-2.305172894822904994e-01
-2.104723077881782700e-01
-1.653710989764257955e-01
-1.603598535528977520e-01
-2.004498169411221553e-01
-1.553486081293696530e-01
-1.453261172823135661e-01
-3.658209159175479508e-01
-6.614843959057030709e-01
-8.519117219997691670e-01
-7.566980589527361190e-01
3.207197071057954485e-01
2.686027547011037075e+00
6.143786889245394178e+00
6.188888098057146792e+00
4.139288719834172348e+00
2.235015458893511830e+00
8.318667403056569931e-01
4.510120881175247454e-02
-9.521366304703302030e-02
-6.514619050586470395e-02
-1.403148718587855226e-01
-2.455510257528746576e-01
-4.109221247293003421e-01
-3.858658976116601247e-01
-3.507871796469637093e-01
-3.307421979528515354e-01
-2.455510257528746298e-01
-2.204947986352343847e-01
-2.004498169411221276e-01
-1.703823443999538112e-01
-1.052361538940891350e-01
-1.052361538940891350e-01
4.008996338822443106e-02
5.512369965880858924e-02
2.505622711764027288e-02
6.514619050586470395e-02
2.104723077881782700e-01
2.154835532117062857e-01
2.706072528705149027e-01
2.906522345646271321e-01
3.557984250704918083e-01
5.061357877763333901e-01
6.364281687880628535e-01
6.815293775998152448e-01
7.617093043762641624e-01
9.371028941997461281e-01
1.047350293517363085e+00
1.117507729446755915e+00
1.187665165376148746e+00
1.252811355882013533e+00
1.212721392493788963e+00
1.247800110458485490e+00
1.137552711140868311e+00
9.621591213173863455e-01
7.617093043762641624e-01
5.512369965880858924e-01
3.858658976116601802e-01
1.102473993176172062e-01
