-5.879953529611480212e-01
-5.563340647247785320e-01
-5.427649411949058145e-01
-5.518110235481542558e-01
-5.608571059014026972e-01
-5.427649411949058145e-01
-5.608571059014026972e-01
-5.382419000182816493e-01
-5.382419000182816493e-01
-5.382419000182816493e-01
-5.246727764884089318e-01
-5.382419000182816493e-01
-5.111036529585363253e-01
-5.020575706052879950e-01
-5.201497353117847666e-01
-5.608571059014026972e-01
-9.860229765040791072e-01
-5.065806117819121601e-01
-5.201497353117848776e-01
-5.246727764884090428e-01
-5.201497353117848776e-01
-5.111036529585364363e-01
-4.432580353091731817e-01
-5.970414353143964625e-01
-4.477810764857973469e-01
-4.703962823689185058e-01
-4.251658706026762991e-01
-4.296889117793005197e-01
-4.025506647195551957e-01
-2.351981411844591974e-01
-1.673525235350959983e-01
-4.975345294286637188e-02
3.618432941299373762e-02
4.975345294286638576e-02
7.236865882598746136e-02
9.950690588573275763e-02
1.537834000052233363e-01
1.266451529454780400e-01
1.040299470623569644e-01
1.175990705922296126e-01
9.950690588573275763e-02
7.689170000261166815e-02
1.040299470623569644e-01
7.689170000261166815e-02
6.332257647273902001e-02
1.130760294156054058e-01
1.130760294156054058e-01
4.523041176624216508e-02
9.046082353248431629e-02
7.236865882598746136e-02
5.427649411949059255e-02
4.523041176624216508e-02
7.236865882598746136e-02
-3.166128823636951695e-02
0.000000000000000000e+00
-9.046082353248413588e-03
-2.713824705974529627e-02
-3.166128823636951695e-02
1.356912352987266202e-02
4.975345294286637188e-02
-1.809216470649685493e-02
0.000000000000000000e+00
1.809216470649685493e-02
2.713824705974529627e-02
-4.070737058961795829e-02
1.809216470649685493e-02
-3.166128823636951695e-02
4.523041176624220672e-03
-4.070737058961795829e-02
-1.809216470649685493e-02
-2.261520588312107560e-02
2.713824705974529627e-02
-9.046082353248441343e-03
-4.975345294286637188e-02
4.523041176624220672e-03
-2.261520588312107560e-02
-4.975345294286637188e-02
-2.713824705974529627e-02
4.523041176624215121e-02
-3.618432941299373762e-02
-4.523041176624215121e-02
2.713824705974529627e-02
4.523041176624220672e-03
-4.070737058961793053e-02
3.166128823636951695e-02
-9.046082353248413588e-03
9.046082353248441343e-03
1.809216470649688269e-02
2.713824705974529627e-02
0.000000000000000000e+00
4.975345294286638576e-02
4.523041176624216508e-02
-1.356912352987263426e-02
-4.070737058961793053e-02
6.332257647273902001e-02
-1.356912352987263426e-02
9.046082353248441343e-03
4.523041176624220672e-03
-4.070737058961793053e-02
-1.809216470649685493e-02
8.141474117923588882e-02
-1.809216470649685493e-02
-4.070737058961793053e-02
3.618432941299370986e-02
1.130760294156053780e-01
1.402142764753506743e-01
2.487672647143318594e-01
2.532903058909560801e-01
3.799354588364340923e-01
4.658732411922942296e-01
4.206428294260520229e-01
4.115967470728036370e-01
2.849515941273255693e-01
1.492603588285991156e-01
-7.689170000261169591e-02
-6.784561764936319905e-02
0.000000000000000000e+00
-1.085529882389811851e-01
1.673525235350959983e-01
-9.046082353248430241e-02
-1.583064411818475570e-01
-1.718755647117201635e-01
-1.356912352987265091e-01
-3.618432941299370986e-02
-5.879953529611475771e-02
-8.593778235586002623e-02
-2.261520588312104785e-02
-2.306751000078349767e-01
-9.317464823845883481e-01
-1.320728023574270882e+00
-1.062914676506690803e+00
-1.356912352987260650e-02
1.908723376535419014e+00
6.011121723733582556e+00
7.123789853183139620e+00
3.419419129527907053e+00
9.091312765014674113e-01
-4.387349941325489056e-01
-1.103622047096308734e+00
-9.227004000313400178e-01
-5.201497353117847666e-01
-3.347050470701919966e-01
-3.527972117766887683e-01
-4.296889117793004642e-01
-4.523041176624215121e-01
-4.070737058961794164e-01
-4.568271588390457882e-01
-4.658732411922942296e-01
-3.527972117766887683e-01
-3.437511294234403270e-01
-3.799354588364340923e-01
-2.939976764805739551e-01
-3.482741706000646031e-01
-4.975345294286637188e-01
-4.749193235455426709e-01
-4.025506647195551402e-01
-4.206428294260520229e-01
-4.206428294260520229e-01
-4.342119529559247404e-01
-6.106105588442690690e-01
-5.970414353143963515e-01
-5.518110235481542558e-01
-5.291958176650332080e-01
-6.106105588442690690e-01
-6.015644764910207387e-01
-5.111036529585363253e-01
-5.201497353117847666e-01
-4.115967470728035815e-01
-2.985207176571982313e-01
-1.990138117714654875e-01
-1.040299470623569089e-01
-5.879953529611475771e-02
0.000000000000000000e+00
0.000000000000000000e+00
8.593778235586009562e-02
0.000000000000000000e+00
-4.070737058961794441e-02
0.000000000000000000e+00
9.046082353248427466e-03
7.689170000261166815e-02
4.523041176624215814e-02
1.356912352987264814e-02
-9.046082353248427466e-03
7.236865882598744748e-02
9.498386470910852308e-02
8.141474117923588882e-02
0.000000000000000000e+00
7.236865882598744748e-02
9.046082353248431629e-02
-3.166128823636950307e-02
3.166128823636951001e-02
1.356912352987264814e-02
1.085529882389811851e-01
2.713824705974529627e-02
9.046082353248427466e-03
-1.085529882389811851e-01
-4.975345294286637188e-02
2.261520588312107560e-02
-2.261520588312107560e-02
1.809216470649686881e-02
2.261520588312107560e-02
-7.689170000261166815e-02
-3.618432941299372374e-02
0.000000000000000000e+00
-4.070737058961793053e-02
-4.975345294286637188e-02
2.261520588312107560e-02
-1.809216470649686881e-02
-4.523041176624215121e-02
4.523041176624215814e-02
1.809216470649686881e-02
-1.809216470649686881e-02
-3.618432941299372374e-02
8.141474117923588882e-02
5.427649411949058561e-02
3.166128823636951001e-02
2.261520588312107560e-02
8.141474117923588882e-02
1.673525235350959983e-01
2.849515941273256248e-01
3.120898411870708933e-01
3.075668000104466726e-01
4.703962823689183947e-01
5.427649411949059255e-01
4.568271588390457882e-01
5.382419000182816493e-01
3.844585000130583685e-01
2.713824705974529072e-01
2.171059764779623424e-01
9.046082353248431629e-02
-1.809216470649685493e-02
0.000000000000000000e+00
-9.046082353248431629e-02
-1.763986058883444397e-01
-1.718755647117202190e-01
-1.040299470623569505e-01
-2.035368529480897082e-01
-1.447373176519748950e-01
-4.070737058961793053e-02
-4.523041176624220672e-03
-5.879953529611481322e-02
0.000000000000000000e+00
-2.894746353039497899e-01
-1.013161223563824320e+00
-1.234790241218410856e+00
-6.196566411975175104e-01
8.277165353222314392e-01
2.881177229509625626e+00
6.562932747281736923e+00
6.920253000235049967e+00
3.206836194226569070e+00
1.148852458862550829e+00
-2.713824705974529627e-02
-1.013161223563824320e+00
-9.814999353274547200e-01
-5.744262294312754147e-01
-4.206428294260520229e-01
-4.115967470728035815e-01
-4.342119529559247404e-01
-4.342119529559247404e-01
-4.658732411922942296e-01
-4.206428294260520229e-01
-3.844585000130583685e-01
-4.206428294260520229e-01
-3.799354588364340923e-01
-3.527972117766888793e-01
-3.392280882468161618e-01
-3.889815411896825337e-01
-4.432580353091731817e-01
-5.291958176650332080e-01
0.000000000000000000e+00
-5.291958176650332080e-01
-5.789492706078995798e-01
-5.789492706078995798e-01
-6.377488059040143931e-01
-6.920253000235050411e-01
-7.463017941429955782e-01
-7.689170000261166260e-01
-8.005782882624861152e-01
-7.915322059092377849e-01
-7.598709176728682957e-01
-7.870091647326135087e-01
-6.739331353170081584e-01
-5.518110235481543668e-01
-4.749193235455426709e-01
-2.939976764805740661e-01
-5.879953529611481322e-02
0.000000000000000000e+00
0.000000000000000000e+00
4.523041176624215121e-02
1.130760294156054058e-01
1.763986058883444119e-01
1.583064411818475292e-01
1.854446882415928533e-01
1.221221117688538194e-01
1.221221117688538194e-01
1.809216470649686326e-01
1.854446882415928533e-01
1.130760294156054058e-01
1.990138117714655153e-01
1.899677294182170739e-01
1.809216470649686326e-01
2.442442235377076665e-01
2.171059764779623424e-01
9.950690588573274376e-02
1.085529882389811851e-01
1.356912352987264814e-01
9.950690588573274376e-02
1.085529882389811851e-01
9.950690588573274376e-02
3.166128823636951695e-02
-9.046082353248427466e-03
3.618432941299373762e-02
-9.046082353248427466e-03
-4.523041176624206794e-03
-4.523041176624206794e-03
1.809216470649685493e-02
4.523041176624215121e-02
7.236865882598744748e-02
6.784561764936322681e-02
3.618432941299373762e-02
-2.713824705974529627e-02
2.713824705974529627e-02
0.000000000000000000e+00
-4.523041176624215121e-02
5.427649411949059255e-02
1.628294823584717499e-01
1.854446882415928533e-01
2.668594294208287421e-01
1.854446882415928533e-01
2.894746353039497899e-01
5.472879823715300907e-01
6.422718470806386692e-01
4.884884470754152774e-01
4.658732411922942296e-01
4.523041176624216231e-01
2.532903058909561356e-01
1.175990705922296264e-01
9.950690588573274376e-02
0.000000000000000000e+00
-4.523041176624215814e-02
-3.618432941299372374e-02
-1.809216470649686326e-01
-8.141474117923587495e-02
-1.175990705922296126e-01
-2.216290176545865631e-01
-1.266451529454780123e-01
-2.261520588312107560e-02
-2.351981411844591974e-01
-5.427649411949059255e-02
-2.261520588312108948e-02
-2.351981411844591974e-01
-9.272234412079641830e-01
-1.239313282395035021e+00
-8.141474117923588327e-01
4.251658706026762991e-01
2.329366205961470815e+00
6.372965017863520210e+00
7.508248353196198543e+00
3.767693300127971323e+00
1.365958435340513200e+00
-1.809216470649686881e-02
-9.407925647378367895e-01
-1.144329417685926664e+00
-7.960552470858619500e-01
-6.060875176676449039e-01
-5.156266941351606015e-01
-4.703962823689183947e-01
-5.608571059014026972e-01
-5.834723117845238560e-01
-5.472879823715300907e-01
-5.472879823715300907e-01
-5.427649411949059255e-01
-5.246727764884090428e-01
-6.241796823741417866e-01
-6.015644764910207387e-01
-5.653801470780269733e-01
-5.834723117845238560e-01
-6.875022588468807649e-01
-7.191635470832502541e-01
-6.784561764936323236e-01
-7.191635470832502541e-01
-8.141474117923588327e-01
-8.639008647352252046e-01
-1.008638182387200155e+00
-1.008638182387200155e+00
-1.008638182387200155e+00
-9.995921000339516027e-01
-1.035776429446945368e+00
-1.004115141210575990e+00
-9.950690588573274376e-01
-8.955621529715946938e-01
-8.141474117923588327e-01
-6.784561764936323236e-01
-4.296889117793004642e-01
-2.397211823610834180e-01
-1.402142764753506743e-01
0.000000000000000000e+00
0.000000000000000000e+00
5.427649411949057867e-02
9.950690588573272988e-02
1.040299470623569505e-01
1.537834000052233363e-01
1.175990705922296126e-01
1.583064411818475570e-01
2.306751000078350322e-01
1.447373176519748950e-01
1.492603588285991156e-01
1.583064411818475570e-01
1.266451529454780123e-01
1.447373176519748950e-01
1.628294823584717776e-01
1.447373176519748950e-01
1.583064411818475570e-01
1.311681941221022329e-01
5.879953529611479934e-02
3.618432941299372374e-02
1.809216470649685493e-02
7.689170000261165427e-02
4.975345294286635800e-02
2.261520588312107560e-02
1.356912352987264814e-02
-3.166128823636951001e-02
-2.713824705974529627e-02
-4.523041176624220672e-03
0.000000000000000000e+00
-4.523041176624220672e-03
0.000000000000000000e+00
5.879953529611479934e-02
-1.356912352987264814e-02
0.000000000000000000e+00
0.000000000000000000e+00
0.000000000000000000e+00
0.000000000000000000e+00
4.070737058961794441e-02
1.809216470649685493e-02
-2.261520588312108254e-02
-4.523041176624220672e-03
-4.975345294286637188e-02
-7.689170000261166815e-02
0.000000000000000000e+00
9.950690588573272988e-02
1.899677294182170462e-01
2.171059764779623702e-01
2.171059764779623702e-01
3.573202529533130445e-01
4.342119529559247404e-01
4.432580353091731817e-01
3.618432941299372652e-01
3.120898411870708933e-01
2.668594294208287421e-01
8.141474117923587495e-02
0.000000000000000000e+00
0.000000000000000000e+00
0.000000000000000000e+00
-6.784561764936325456e-02
-9.498386470910855084e-02
-1.447373176519749227e-01
-1.537834000052233641e-01
-1.673525235350959706e-01
-1.402142764753507020e-01
-9.498386470910849533e-02
-5.879953529611481322e-02
-4.523041176624220672e-03
0.000000000000000000e+00
-2.261520588312110336e-02
-5.246727764884089318e-01
-1.103622047096308512e+00
-1.099099005919684346e+00
-1.763986058883444397e-01
1.451896217696373226e+00
4.206428294260520673e+00
7.607755259081931065e+00
4.627071123686572918e+00
1.659956111821087266e+00
1.583064411818475570e-01
-7.236865882598744193e-01
-1.198605911805417090e+00
-7.734400412027409022e-01
-3.799354588364341478e-01
-4.432580353091731262e-01
-4.839654058987910568e-01
-4.477810764857974024e-01
-4.387349941325489611e-01
-4.839654058987910568e-01
-4.387349941325489611e-01
-4.568271588390458438e-01
-4.749193235455426154e-01
-3.663663353065614303e-01
-3.663663353065614303e-01
-3.980276235429310305e-01
-3.799354588364341478e-01
-3.708893764831857065e-01
-4.115967470728036370e-01
-4.206428294260520784e-01
-4.387349941325489611e-01
-5.111036529585364363e-01
-5.563340647247785320e-01
-5.563340647247785320e-01
-5.925183941377722974e-01
-6.603640117871354409e-01
-6.513179294338871106e-01
-6.422718470806385582e-01
-6.287027235507660627e-01
-5.699031882546512495e-01
-5.337188588416574841e-01
-4.749193235455426154e-01
-4.115967470728036370e-01
-2.578133470675802452e-01
-1.583064411818475570e-01
-4.523041176624215121e-02
4.975345294286637188e-02
6.784561764936322681e-02
1.492603588285991156e-01
2.125829353013381218e-01
2.125829353013381218e-01
2.035368529480897082e-01
1.763986058883444119e-01
2.125829353013381218e-01
1.628294823584717776e-01
1.673525235350959706e-01
1.492603588285991156e-01
1.763986058883444119e-01
1.492603588285991156e-01
1.854446882415928255e-01
1.990138117714654875e-01
1.990138117714654875e-01
1.763986058883444119e-01
1.537834000052233363e-01
1.356912352987264536e-01
1.356912352987264536e-01
-1.447373176519748950e-01
4.975345294286637188e-02
2.261520588312107560e-02
6.784561764936322681e-02
1.809216470649685493e-02
1.356912352987263426e-02
4.975345294286637188e-02
9.046082353248413588e-03
4.070737058961793053e-02
9.046082353248413588e-03
-1.356912352987266202e-02
0.000000000000000000e+00
4.070737058961793053e-02
6.784561764936322681e-02
4.070737058961793053e-02
9.046082353248413588e-03
0.000000000000000000e+00
-4.975345294286637188e-02
4.523041176624215121e-02
1.356912352987263426e-02
-1.356912352987266202e-02
0.000000000000000000e+00
1.356912352987263426e-02
-4.070737058961795829e-02
-2.261520588312107560e-02
2.713824705974529627e-02
-9.046082353248441343e-03
0.000000000000000000e+00
6.784561764936322681e-02
0.000000000000000000e+00
-2.261520588312107560e-02
0.000000000000000000e+00
-2.713824705974529627e-02
-5.427649411949059255e-02
-9.046082353248413588e-03
2.713824705974529627e-02
1.356912352987266202e-02
-9.046082353248441343e-03
4.070737058961793053e-02
4.523041176624192916e-03
-1.809216470649688269e-02
2.261520588312107560e-02
2.261520588312107560e-02
2.261520588312107560e-02
4.975345294286637188e-02
0.000000000000000000e+00
-3.618432941299373762e-02
0.000000000000000000e+00
-1.809216470649688269e-02
-2.713824705974529627e-02
-5.427649411949062030e-02
0.000000000000000000e+00
-1.809216470649688269e-02
-2.261520588312107560e-02
2.261520588312107560e-02
-4.070737058961795829e-02
-3.166128823636951695e-02
-1.356912352987266202e-02
-6.332257647273900614e-02
-3.618432941299373762e-02
-7.236865882598744748e-02
-9.046082353248413588e-03
1.221221117688538471e-01
2.623363882442045214e-01
3.256589647169435553e-01
3.392280882468161618e-01
5.246727764884090428e-01
5.744262294312754147e-01
4.568271588390457882e-01
4.161197882494278577e-01
3.301820058935677205e-01
1.402142764753507020e-01
0.000000000000000000e+00
0.000000000000000000e+00
-5.427649411949059255e-02
-5.879953529611486873e-02
-5.427649411949059255e-02
-4.523041176624215121e-02
0.000000000000000000e+00
-9.498386470910852308e-02
-6.784561764936325456e-02
-7.689170000261169591e-02
-1.221221117688537916e-01
-5.427649411949053704e-02
-4.523041176624165161e-03
-7.689170000261158489e-02
-6.377488059040143931e-01
-1.139806376509302277e+00
-1.121714211802805394e+00
-6.965483412001292063e-01
1.108145088272932899e+00
3.957661029546188480e+00
6.924776041411673688e+00
4.097875306021539821e+00
5.246727764884090428e-01
-7.689170000261167370e-01
-1.103622047096308512e+00
-7.734400412027409022e-01
-2.939976764805739551e-01
-2.306751000078349767e-01
-2.894746353039497899e-01
-3.618432941299372096e-01
-3.392280882468161618e-01
-3.211359235403192791e-01
-3.256589647169435553e-01
-2.939976764805739551e-01
-2.578133470675803007e-01
-2.578133470675803007e-01
-2.442442235377075832e-01
-2.532903058909560245e-01
-2.578133470675803007e-01
-2.442442235377075832e-01
-2.532903058909560245e-01
-3.120898411870708378e-01
-3.437511294234403270e-01
-3.211359235403192791e-01
-3.482741706000646031e-01
-3.754124176598099272e-01
-3.754124176598099272e-01
-4.115967470728035815e-01
-4.658732411922941186e-01
-4.387349941325489056e-01
-3.980276235429309750e-01
-4.161197882494278577e-01
-3.573202529533130445e-01
-3.482741706000646031e-01
-2.939976764805739551e-01
-2.578133470675803007e-01
-1.175990705922296264e-01
-1.040299470623569089e-01
-6.784561764936325456e-02
1.809216470649688269e-02
1.809216470649688269e-02
5.427649411949053704e-02
1.040299470623569089e-01
1.130760294156053503e-01
6.784561764936319905e-02
4.975345294286631637e-02
-4.523041176624276183e-03
3.618432941299365435e-02
3.618432941299370986e-02
3.166128823636948919e-02
3.166128823636948919e-02
8.141474117923586107e-02
1.356912352987264536e-01
5.879953529611475771e-02
3.166128823636948919e-02
1.492603588285991156e-01
2.713824705974532403e-02
2.713824705974532403e-02
3.166128823636954470e-02
3.618432941299365435e-02
-2.261520588312115887e-02
2.261520588312104785e-02
-2.713824705974532403e-02
-3.618432941299376537e-02
2.261520588312104785e-02
1.809216470649688269e-02
0.000000000000000000e+00
-5.427649411949053704e-02
0.000000000000000000e+00
-7.689170000261158489e-02
-6.784561764936314354e-02
-2.261520588312104785e-02
-4.975345294286637188e-02
-9.498386470910857859e-02
-4.070737058961793053e-02
-7.689170000261169591e-02
-6.332257647273908940e-02
-3.166128823636948919e-02
-4.070737058961793053e-02
-8.593778235586013725e-02
-2.261520588312104785e-02
-1.356912352987271753e-02
-8.141474117923586107e-02
-5.427649411949064806e-02
-2.261520588312104785e-02
-2.894746353039497899e-01
4.975345294286637188e-02
4.523041176624220672e-03
-4.070737058961793053e-02
-3.166128823636948919e-02
0.000000000000000000e+00
-2.261520588312104785e-02
-2.261520588312110336e-02
-4.523041176624220672e-03
3.618432941299376537e-02
9.046082353248441343e-03
2.261520588312110336e-02
0.000000000000000000e+00
-9.046082353248441343e-03
-4.523041176624220672e-03
-1.809216470649688269e-02
-3.618432941299376537e-02
4.975345294286637188e-02
6.784561764936325456e-02
1.356912352987260650e-02
-3.618432941299370986e-02
9.046082353248441343e-03
0.000000000000000000e+00
-3.935045823663067543e-01
0.000000000000000000e+00
3.618432941299370986e-02
-4.523041176624215121e-02
0.000000000000000000e+00
3.618432941299370986e-02
-1.809216470649682718e-02
-1.809216470649688269e-02
1.356912352987266202e-02
-1.356912352987266202e-02
2.261520588312107560e-02
9.046082353248441343e-03
0.000000000000000000e+00
-3.166128823636951695e-02
4.523041176624215121e-02
0.000000000000000000e+00
-2.713824705974529627e-02
1.356912352987266202e-02
1.356912352987263426e-02
-2.261520588312107560e-02
-1.356912352987266202e-02
2.261520588312108948e-02
-3.166128823636950307e-02
1.356912352987264814e-02
0.000000000000000000e+00
-1.356912352987264814e-02
0.000000000000000000e+00
3.618432941299371680e-02
4.523041176624213733e-03
-1.809216470649685493e-02
0.000000000000000000e+00
9.046082353248427466e-03
-9.046082353248427466e-03
-2.261520588312107560e-02
0.000000000000000000e+00
4.523041176624215468e-03
0.000000000000000000e+00
5.879953529611480628e-02
2.261520588312107907e-02
5.879953529611480628e-02
6.784561764936324069e-02
4.070737058961794441e-02
4.070737058961794441e-02
9.046082353248431629e-02
9.046082353248431629e-02
8.141474117923588882e-02
1.221221117688538332e-01
7.689170000261166815e-02
4.975345294286637882e-02
8.141474117923588882e-02
1.447373176519748950e-01
5.879953529611480628e-02
4.975345294286637882e-02
1.130760294156053919e-01
2.171059764779623424e-01
3.482741706000646031e-01
4.930114882520394981e-01
4.432580353091731262e-01
3.980276235429309750e-01
5.020575706052878839e-01
4.568271588390457882e-01
2.894746353039497899e-01
2.894746353039497899e-01
1.809216470649686048e-01
7.689170000261166815e-02
1.809216470649686187e-02
5.879953529611480628e-02
8.593778235586010950e-02
6.332257647273902001e-02
8.141474117923588882e-02
5.427649411949058561e-02
9.046082353248430935e-03
8.141474117923588882e-02
5.879953529611480628e-02
-9.046082353248430935e-03
2.713824705974529281e-02
5.427649411949057867e-02
-1.221221117688538194e-01
-8.141474117923588327e-01
-1.035776429446945368e+00
-1.008638182387200155e+00
-3.663663353065614858e-01
1.791124305943189610e+00
5.477402864891924850e+00
7.006190782590910437e+00
3.283727894229180766e+00
3.889815411896825337e-01
-6.965483412001292063e-01
-8.005782882624862262e-01
-3.980276235429309750e-01
-1.311681941221022607e-01
-8.141474117923588882e-02
-1.266451529454780400e-01
-9.498386470910853696e-02
-1.311681941221022607e-01
-1.040299470623569644e-01
-1.447373176519748950e-01
-1.311681941221022607e-01
-4.070737058961794441e-02
-1.085529882389811712e-01
-7.236865882598744748e-02
-2.261520588312107560e-02
-6.332257647273900614e-02
-1.085529882389811712e-01
-7.689170000261166815e-02
-9.950690588573274376e-02
-1.175990705922295987e-01
-5.427649411949057867e-02
-8.141474117923587495e-02
-1.809216470649686048e-01
-1.628294823584717776e-01
-1.763986058883444119e-01
-2.171059764779623424e-01
-1.990138117714654875e-01
-2.080598941247139289e-01
-1.809216470649686326e-01
-1.583064411818475570e-01
-8.593778235586010950e-02
-1.809216470649686881e-02
0.000000000000000000e+00
0.000000000000000000e+00
0.000000000000000000e+00
4.070737058961793053e-02
9.498386470910852308e-02
1.583064411818475570e-01
8.593778235586008174e-02
1.356912352987264536e-01
1.583064411818475570e-01
9.950690588573274376e-02
9.950690588573274376e-02
1.040299470623569644e-01
1.085529882389811851e-01
7.689170000261169591e-02
1.492603588285991156e-01
8.593778235586008174e-02
5.879953529611481322e-02
8.593778235586008174e-02
9.046082353248430241e-02
6.784561764936325456e-02
7.236865882598747524e-02
8.141474117923586107e-02
2.261520588312104785e-02
2.713824705974526852e-02
4.975345294286637188e-02
2.713824705974526852e-02
4.523041176624220672e-03
6.332257647273903389e-02
7.236865882598747524e-02
4.523041176624220672e-03
1.356912352987266202e-02
-2.713824705974532403e-02
0.000000000000000000e+00
-4.523041176624215121e-02
-9.046082353248441343e-03
-4.523041176624215121e-02
0.000000000000000000e+00
0.000000000000000000e+00
-8.141474117923588882e-02
-5.427649411949059255e-02
-2.261520588312110336e-02
-4.070737058961798605e-02
-8.593778235586010950e-02
-1.356912352987266202e-02
-2.261520588312110336e-02
-3.618432941299370986e-02
-2.713824705974526852e-02
-2.261520588312104785e-02
-4.070737058961793053e-02
-2.261520588312104785e-02
-3.618432941299370986e-02
-7.236865882598741972e-02
-9.046082353248430241e-02
-4.070737058961793053e-02
-2.713824705974526852e-02
-3.166128823636948919e-02
-2.261520588312104785e-02
-6.784561764936319905e-02
-4.070737058961793053e-02
-1.809216470649682718e-02
1.356912352987266202e-02
-2.713824705974526852e-02
-1.356912352987260650e-02
-1.356912352987260650e-02
-1.356912352987260650e-02
-2.713824705974526852e-02
4.975345294286637188e-02
0.000000000000000000e+00
-9.046082353248385832e-03
5.879953529611481322e-02
4.523041176624220672e-02
1.356912352987266202e-02
3.166128823636954470e-02
-4.523041176624220672e-03
-2.261520588312104785e-02
-1.809216470649682718e-02
0.000000000000000000e+00
4.523041176624220672e-02
6.784561764936325456e-02
5.879953529611481322e-02
-4.523041176624215121e-02
0.000000000000000000e+00
9.046082353248435792e-02
-1.809216470649682718e-02
3.618432941299376537e-02
5.879953529611481322e-02
4.523041176624220672e-02
-2.261520588312104785e-02
3.166128823636954470e-02
4.070737058961798605e-02
9.046082353248441343e-03
4.975345294286642739e-02
3.618432941299376537e-02
9.046082353248441343e-03
4.070737058961798605e-02
2.261520588312110336e-02
-9.046082353248385832e-03
2.713824705974532403e-02
6.784561764936325456e-02
2.261520588312110336e-02
4.523041176624220672e-02
5.427649411949059255e-02
6.332257647273903389e-02
4.975345294286642739e-02
1.175990705922296264e-01
4.975345294286642739e-02
9.046082353248441343e-03
9.046082353248441343e-03
6.332257647273903389e-02
8.141474117923591658e-02
1.944907705948413223e-01
3.618432941299373207e-01
3.799354588364342034e-01
3.708893764831857620e-01
4.523041176624216231e-01
3.437511294234404380e-01
2.939976764805740661e-01
2.261520588312108115e-01
9.046082353248435792e-02
4.975345294286642739e-02
1.809216470649688269e-02
-6.784561764936319905e-02
-3.618432941299370986e-02
-4.523041176624165161e-03
-2.713824705974526852e-02
-1.221221117688537916e-01
-4.975345294286637188e-02
-4.523041176624215121e-02
-9.046082353248433017e-02
-5.427649411949059255e-02
3.618432941299370986e-02
-6.332257647273900614e-02
-4.975345294286634412e-02
-3.482741706000646031e-01
-1.008638182387200155e+00
-1.185036788275544595e+00
-9.136543176780915765e-01
2.804285529507013486e-01
2.709301664797905129e+00
7.621324382611803117e+00
5.626663223720523632e+00
2.089645023600387841e+00
1.673525235350959428e-01
-8.593778235586010394e-01
-8.322395764988557154e-01
-4.296889117793005197e-01
-2.532903058909560801e-01
-3.301820058935677760e-01
-3.256589647169435553e-01
-2.939976764805740106e-01
-3.256589647169435553e-01
-3.211359235403192791e-01
-2.804285529507013486e-01
-2.894746353039497899e-01
-2.442442235377076665e-01
-2.261520588312108115e-01
-2.668594294208287421e-01
-2.939976764805740661e-01
-2.939976764805740661e-01
-2.849515941273256248e-01
-3.075668000104466726e-01
-3.754124176598099272e-01
-3.437511294234404380e-01
-4.342119529559247404e-01
-4.387349941325489056e-01
-4.342119529559247404e-01
-4.703962823689184503e-01
-5.065806117819121601e-01
-4.930114882520395536e-01
-5.201497353117847666e-01
-5.472879823715300907e-01
-4.975345294286637188e-01
-4.025506647195551957e-01
-3.618432941299372652e-01
-2.668594294208287421e-01
-1.673525235350959983e-01
-1.492603588285991156e-01
-6.784561764936325456e-02
4.070737058961795829e-02
5.879953529611478547e-02
7.689170000261166815e-02
1.447373176519749227e-01
1.447373176519749227e-01
1.583064411818475292e-01
3.573202529533130445e-01
1.492603588285990879e-01
7.689170000261166815e-02
1.266451529454780400e-01
1.085529882389811573e-01
6.784561764936322681e-02
-9.046082353248441343e-03
8.141474117923588882e-02
5.427649411949056479e-02
4.523041176624212345e-02
0.000000000000000000e+00
7.236865882598744748e-02
1.040299470623569367e-01
3.166128823636951695e-02
0.000000000000000000e+00
0.000000000000000000e+00
2.713824705974529627e-02
1.356912352987263426e-02
9.046082353248413588e-03
4.523041176624220672e-03
-9.046082353248441343e-03
-2.713824705974529627e-02
0.000000000000000000e+00
4.523041176624220672e-03
-4.523041176624217896e-02
-4.070737058961795829e-02
4.523041176624220672e-03
-1.809216470649688269e-02
0.000000000000000000e+00
4.523041176624220672e-03
-1.356912352987266202e-02
0.000000000000000000e+00
1.809216470649685493e-02
2.261520588312107560e-02
-4.523041176624220672e-03
-4.523041176624220672e-03
2.261520588312107560e-02
1.356912352987263426e-02
1.356912352987263426e-02
8.593778235586010950e-02
0.000000000000000000e+00
-1.356912352987266202e-02
3.166128823636951695e-02
0.000000000000000000e+00
1.356912352987263426e-02
-7.689170000261166815e-02
2.261520588312107560e-02
4.975345294286634412e-02
4.523041176624212345e-02
1.356912352987263426e-02
-2.713824705974529627e-02
-2.261520588312107560e-02
2.261520588312107560e-02
-4.523041176624220672e-03
0.000000000000000000e+00
9.046082353248441343e-03
-2.035368529480897082e-01
-3.618432941299373762e-02
4.523041176624220672e-03
-2.713824705974529627e-02
-3.618432941299373762e-02
2.261520588312107560e-02
4.523041176624215121e-02
1.356912352987263426e-02
-3.618432941299373762e-02
1.809216470649688269e-02
-2.713824705974526852e-02
6.784561764936325456e-02
6.332257647273903389e-02
3.618432941299373762e-02
0.000000000000000000e+00
5.879953529611481322e-02
-4.523041176624192916e-03
-4.523041176624215121e-02
0.000000000000000000e+00
0.000000000000000000e+00
-4.523041176624215121e-02
4.523041176624220672e-03
0.000000000000000000e+00
-4.523041176624215121e-02
0.000000000000000000e+00
-4.523041176624215121e-02
-3.166128823636948919e-02
-2.261520588312110336e-02
0.000000000000000000e+00
-3.166128823636951695e-02
-7.236865882598746136e-02
-4.523041176624220672e-03
-3.166128823636951695e-02
-1.356912352987266202e-02
0.000000000000000000e+00
2.261520588312107560e-02
-2.261520588312110336e-02
0.000000000000000000e+00
1.356912352987263426e-02
1.356912352987263426e-02
1.130760294156054058e-01
2.623363882442045214e-01
2.578133470675803007e-01
2.216290176545865354e-01
3.573202529533129890e-01
4.794423647221668916e-01
3.935045823663067543e-01
2.759055117740771279e-01
1.990138117714654875e-01
1.040299470623569644e-01
2.713824705974529627e-02
0.000000000000000000e+00
0.000000000000000000e+00
-1.809216470649686187e-02
0.000000000000000000e+00
-5.879953529611480628e-02
-9.950690588573275763e-02
-5.879953529611480628e-02
-1.085529882389811851e-01
-8.593778235586009562e-02
0.000000000000000000e+00
-4.523041176624215121e-02
-4.523041176624215121e-02
-9.498386470910852308e-02
-7.146405059066260890e-01
-1.148852458862550829e+00
-1.207651994158665643e+00
-5.789492706078995798e-01
1.148852458862550829e+00
4.355688653089119455e+00
8.082674582627474180e+00
4.115967470728036481e+00
1.270974570631404621e+00
-1.492603588285991156e-01
-9.679308117975820025e-01
-7.553478764962440195e-01
-3.482741706000646031e-01
-2.668594294208287421e-01
-3.120898411870708933e-01
-4.070737058961794164e-01
-3.889815411896825337e-01
-4.251658706026762991e-01
-4.025506647195551957e-01
-3.618432941299372652e-01
-3.889815411896825337e-01
-3.708893764831857065e-01
-3.392280882468161618e-01
-3.844585000130583130e-01
-3.482741706000646031e-01
-3.256589647169435553e-01
-4.115967470728036370e-01
-4.070737058961794164e-01
-4.025506647195551957e-01
-4.523041176624215676e-01
-4.477810764857974024e-01
-4.342119529559246849e-01
-4.794423647221668916e-01
-5.065806117819120491e-01
-5.065806117819120491e-01
-5.156266941351606015e-01
-5.879953529611481322e-01
-5.156266941351606015e-01
-4.658732411922941741e-01
-4.387349941325489611e-01
-3.482741706000646031e-01
-2.171059764779623702e-01
-2.035368529480897082e-01
-1.402142764753506743e-01
-4.523041176624206794e-03
1.356912352987264814e-02
4.523041176624213733e-03
1.130760294156053919e-01
1.311681941221022607e-01
9.950690588573274376e-02
9.950690588573274376e-02
1.356912352987264536e-01
1.040299470623569644e-01
7.236865882598744748e-02
1.447373176519748950e-01
7.236865882598744748e-02
1.175990705922295987e-01
1.130760294156054058e-01
1.221221117688538194e-01
1.085529882389811851e-01
7.236865882598744748e-02
4.070737058961794441e-02
7.689170000261166815e-02
9.046082353248431629e-02
5.427649411949059255e-02
2.713824705974529627e-02
3.166128823636951001e-02
4.523041176624215814e-02
-3.618432941299371680e-02
-4.975345294286636494e-02
-4.523041176624213733e-03
-3.618432941299371680e-02
-1.809216470649686187e-02
0.000000000000000000e+00
1.809216470649686534e-02
-2.261520588312107560e-02
4.975345294286637188e-02
-2.261520588312107560e-02
-4.523041176624213733e-03
4.070737058961794441e-02
-1.809216470649686326e-01
-4.975345294286636494e-02
1.809216470649686534e-02
3.166128823636951001e-02
-1.356912352987264120e-02
-3.166128823636951001e-02
9.046082353248434405e-03
-3.618432941299371680e-02
-2.713824705974528934e-02
1.356912352987265161e-02
-3.166128823636951001e-02
-5.427649411949058561e-02
3.618432941299373068e-02
1.809216470649686534e-02
3.618432941299373068e-02
3.166128823636951001e-02
3.166128823636951001e-02
2.713824705974529627e-02
2.713824705974529627e-02
6.332257647273902001e-02
2.261520588312107907e-02
-1.356912352987264814e-02
4.070737058961794441e-02
-1.809216470649686187e-02
-2.261520588312107560e-02
9.046082353248427466e-03
0.000000000000000000e+00
9.046082353248427466e-03
2.804285529507013486e-01
0.000000000000000000e+00
-4.523041176624215814e-02
-1.809216470649686187e-02
6.784561764936324069e-02
-7.689170000261166815e-02
4.070737058961794441e-02
-8.593778235586010950e-02
-1.809216470649686187e-02
-2.713824705974528934e-02
-9.046082353248434405e-03
-3.166128823636951001e-02
-1.809216470649686187e-02
-9.046082353248434405e-03
-3.166128823636951001e-02
-4.975345294286637882e-02
-1.356912352987264814e-02
0.000000000000000000e+00
4.523041176624213733e-03
7.689170000261166815e-02
2.487672647143318594e-01
2.578133470675803007e-01
2.894746353039497899e-01
3.618432941299372652e-01
3.844585000130583685e-01
4.658732411922942296e-01
3.618432941299372652e-01
2.985207176571982313e-01
2.397211823610834458e-01
7.689170000261166815e-02
0.000000000000000000e+00
-4.523041176624220672e-03
0.000000000000000000e+00
0.000000000000000000e+00
-4.070737058961795829e-02
-7.236865882598747524e-02
-8.593778235586008174e-02
-1.402142764753506743e-01
-1.583064411818475570e-01
-1.085529882389811851e-01
-5.879953529611478547e-02
-3.166128823636948919e-02
-3.618432941299376537e-02
-3.211359235403193346e-01
-9.905460176807032724e-01
-1.130760294156053947e+00
-9.995921000339518248e-01
1.583064411818475292e-01
2.306751000078349989e+00
6.214658576681673097e+00
6.621732282577852402e+00
2.406257905964082511e+00
5.156266941351606015e-01
-4.975345294286637743e-01
-1.090052923566436016e+00
-6.875022588468808760e-01
-3.935045823663067543e-01
-3.482741706000646587e-01
-3.120898411870708933e-01
-3.663663353065615413e-01
-4.206428294260520784e-01
-4.477810764857974024e-01
-4.251658706026763546e-01
-3.618432941299372652e-01
-3.120898411870708933e-01
-3.030437588338224519e-01
-3.889815411896825892e-01
-3.527972117766888238e-01
-3.935045823663067543e-01
-4.161197882494279132e-01
-4.161197882494279132e-01
-4.070737058961794719e-01
-4.930114882520394981e-01
-5.518110235481543668e-01
-5.156266941351606015e-01
-5.518110235481543668e-01
-6.060875176676450149e-01
-6.151336000208933452e-01
-6.377488059040143931e-01
-6.739331353170081584e-01
-6.467948882572629454e-01
-6.332257647273902279e-01
-5.653801470780270844e-01
-5.111036529585364363e-01
-3.663663353065615413e-01
-2.804285529507014041e-01
-2.487672647143319149e-01
-7.236865882598747524e-02
-9.046082353248441343e-03
7.689170000261164040e-02
9.498386470910852308e-02
1.356912352987264536e-01
1.537834000052233363e-01
1.763986058883444119e-01
1.944907705948412668e-01
1.221221117688538194e-01
1.402142764753506743e-01
1.583064411818475570e-01
-2.759055117740771834e-01
1.221221117688538055e-01
1.854446882415928255e-01
1.628294823584717499e-01
1.628294823584717499e-01
2.080598941247139011e-01
1.356912352987264536e-01
9.498386470910852308e-02
1.628294823584717499e-01
6.784561764936322681e-02
9.046082353248430241e-02
9.046082353248430241e-02
1.311681941221022329e-01
4.070737058961793053e-02
6.784561764936322681e-02
9.950690588573274376e-02
6.784561764936322681e-02
1.809216470649685493e-02
4.523041176624215121e-02
1.809216470649685493e-02
-2.713824705974529627e-02
-4.070737058961795829e-02
4.523041176624192916e-03
-4.070737058961795829e-02
2.713824705974526852e-02
2.261520588312107560e-02
3.166128823636948919e-02
2.713824705974526852e-02
4.975345294286637188e-02
4.523041176624192916e-03
2.713824705974526852e-02
1.809216470649685493e-02
1.356912352987263426e-02
-3.166128823636951695e-02
-4.523041176624220672e-03
-4.070737058961795829e-02
-3.166128823636951695e-02
-9.046082353248441343e-03
-3.166128823636951695e-02
-4.975345294286639963e-02
-4.523041176624220672e-03
-2.261520588312107560e-02
-3.618432941299373762e-02
0.000000000000000000e+00
9.046082353248413588e-03
-4.523041176624220672e-03
1.809216470649685493e-02
9.046082353248441343e-03
-4.523041176624217896e-02
-4.070737058961795829e-02
-3.618432941299373762e-02
2.713824705974529627e-02
9.498386470910852308e-02
2.261520588312107838e-01
1.990138117714654875e-01
2.171059764779623424e-01
3.482741706000646031e-01
4.206428294260520229e-01
3.256589647169435553e-01
3.256589647169435553e-01
2.397211823610834458e-01
2.713824705974532403e-02
-1.356912352987266202e-02
0.000000000000000000e+00
1.356912352987266202e-02
-4.523041176624215121e-02
-7.689170000261169591e-02
-1.130760294156054058e-01
-1.175990705922296264e-01
-1.402142764753506743e-01
-9.046082353248430241e-02
-7.689170000261169591e-02
0.000000000000000000e+00
-8.141474117923586107e-02
-6.784561764936325456e-02
-1.175990705922296264e-01
-6.422718470806386692e-01
-1.325251064750895047e+00
-1.650910029467838491e+00
-2.939976764805739551e-01
1.388573641223634247e+00
5.151743900174981405e+00
7.666554794378045656e+00
4.314981282499501525e+00
1.528787917698985144e+00
1.583064411818475570e-01
-7.870091647326135087e-01
-1.221221117688538360e+00
-8.639008647352252046e-01
-4.296889117793004642e-01
-4.251658706026762991e-01
-4.794423647221668361e-01
-4.930114882520394426e-01
-4.975345294286637188e-01
-4.703962823689183947e-01
-4.206428294260520229e-01
-4.658732411922942296e-01
-4.477810764857973469e-01
-3.754124176598099272e-01
-4.070737058961794164e-01
-4.703962823689183947e-01
-4.749193235455426709e-01
-4.839654058987911123e-01
-5.563340647247785320e-01
-5.744262294312753037e-01
-5.563340647247785320e-01
-6.422718470806386692e-01
-6.648870529637597171e-01
-6.513179294338869996e-01
-7.870091647326135087e-01
-7.915322059092376739e-01
-7.598709176728682957e-01
-7.870091647326135087e-01
-7.870091647326135087e-01
-6.603640117871355519e-01
-6.739331353170080474e-01
-6.332257647273901169e-01
-4.161197882494278577e-01
-2.578133470675803007e-01
-1.040299470623569089e-01
0.000000000000000000e+00
0.000000000000000000e+00
0.000000000000000000e+00
0.000000000000000000e+00
1.809216470649686187e-02
2.713824705974529627e-02
-1.809216470649686187e-02
6.332257647273902001e-02
4.523041176624215814e-02
2.261520588312107907e-02
8.141474117923588882e-02
7.236865882598744748e-02
0.000000000000000000e+00
3.166128823636951001e-02
6.784561764936324069e-02
2.713824705974529627e-02
1.356912352987264814e-02
9.950690588573274376e-02
2.713824705974529627e-02
0.000000000000000000e+00
4.523041176624217202e-03
-2.713824705974529281e-02
-5.427649411949057867e-02
0.000000000000000000e+00
-4.523041176624215121e-02
-7.236865882598744748e-02
-7.236865882598744748e-02
-6.784561764936322681e-02
-7.689170000261166815e-02
-4.975345294286637188e-02
-5.427649411949057867e-02
8.141474117923588882e-02
-2.713824705974529281e-02
2.713824705974529627e-02
-4.975345294286637188e-02
-2.713824705974529281e-02
2.261520588312107907e-02
-9.046082353248430935e-03
1.356912352987264640e-02
1.809216470649686187e-02
1.356912352987264640e-02
-5.879953529611480628e-02
1.809216470649686187e-02
1.356912352987264640e-02
1.809216470649686187e-02
0.000000000000000000e+00
-4.523041176624215468e-03
-3.618432941299372374e-02
9.046082353248430935e-03
1.809216470649686187e-02
-9.046082353248432670e-03
1.356912352987264640e-02
5.879953529611480628e-02
9.046082353248430935e-03
0.000000000000000000e+00
5.427649411949059255e-02
2.261520588312107560e-02
9.046082353248430935e-03
4.523041176624215468e-03
1.809216470649686187e-02
4.523041176624215468e-03
-4.523041176624215468e-03
4.523041176624215814e-02
2.261520588312107560e-02
4.070737058961794441e-02
8.141474117923587495e-02
5.879953529611480628e-02
8.593778235586009562e-02
2.080598941247139289e-01
3.437511294234403825e-01
3.754124176598099272e-01
4.025506647195551957e-01
5.156266941351606015e-01
6.287027235507660627e-01
6.648870529637597171e-01
5.156266941351606015e-01
3.799354588364340923e-01
3.030437588338224519e-01
1.763986058883444119e-01
4.975345294286637188e-02
1.356912352987264640e-02
5.879953529611480628e-02
-2.261520588312107560e-02
-4.523041176624215814e-02
-4.523041176624215468e-03
-2.713824705974529627e-02
-5.879953529611480628e-02
-2.713824705974529627e-02
-2.713824705974529627e-02
-1.356912352987264814e-02
-9.046082353248434405e-03
3.166128823636951001e-02
-1.040299470623569644e-01
-8.458087000287283219e-01
-1.148852458862550829e+00
-1.121714211802805394e+00
-3.256589647169434998e-01
1.895154253005546519e+00
5.567863688424409929e+00
7.729877370850784857e+00
3.749601135421474662e+00
7.101174647300019238e-01
-4.839654058987911123e-01
-1.108145088272932899e+00
-8.955621529715946938e-01
-4.387349941325489056e-01
-2.668594294208286866e-01
-3.166128823636950584e-01
-3.211359235403192791e-01
-3.256589647169434998e-01
-2.894746353039497899e-01
-2.804285529507013486e-01
-2.759055117740771279e-01
-2.125829353013381495e-01
-2.532903058909560801e-01
-2.578133470675803007e-01
-2.532903058909560801e-01
-2.578133470675803007e-01
-2.849515941273255693e-01
-2.532903058909560801e-01
-2.442442235377076665e-01
-3.256589647169434998e-01
-3.437511294234403825e-01
-3.256589647169434998e-01
-4.432580353091731262e-01
-4.703962823689183947e-01
-4.568271588390457882e-01
-4.975345294286637188e-01
-5.111036529585363253e-01
-4.658732411922941741e-01
-4.975345294286637188e-01
-4.658732411922941741e-01
-3.844585000130583130e-01
-2.939976764805740106e-01
-2.306751000078350045e-01
-1.175990705922296264e-01
-2.261520588312108254e-02
0.000000000000000000e+00
0.000000000000000000e+00
4.070737058961795829e-02
1.130760294156054058e-01
1.130760294156054058e-01
1.583064411818475292e-01
1.266451529454780400e-01
9.046082353248433017e-02
1.763986058883444119e-01
1.040299470623569644e-01
8.593778235586010950e-02
5.789492706078996909e-01
1.085529882389811851e-01
6.784561764936322681e-02
1.130760294156054058e-01
1.311681941221022607e-01
1.221221117688538194e-01
9.046082353248433017e-02
1.130760294156054058e-01
1.040299470623569644e-01
9.950690588573274376e-02
7.236865882598744748e-02
3.166128823636951695e-02
-3.618432941299373762e-02
-3.166128823636951695e-02
-6.784561764936324069e-02
-8.141474117923588882e-02
0.000000000000000000e+00
2.261520588312107560e-02
-5.879953529611481322e-02
-5.879953529611481322e-02
-3.618432941299370986e-02
-4.975345294286635800e-02
-4.523041176624192916e-03
-1.809216470649685493e-02
1.356912352987266202e-02
-4.975345294286635800e-02
-2.713824705974528240e-02
-9.046082353248413588e-03
-4.975345294286635800e-02
2.261520588312110336e-02
-9.046082353248413588e-03
-4.975345294286635800e-02
9.046082353248441343e-03
4.070737058961795829e-02
-4.975345294286635800e-02
-1.809216470649685493e-02
3.618432941299373762e-02
-2.713824705974528240e-02
-2.261520588312106173e-02
6.332257647273903389e-02
4.523041176624220672e-03
3.618432941299373762e-02
4.523041176624220672e-03
-4.523041176624215121e-02
-2.713824705974528240e-02
-2.261520588312106173e-02
9.046082353248441343e-03
0.000000000000000000e+00
1.809216470649688269e-02
-2.261520588312106173e-02
-4.975345294286635800e-02
-4.975345294286635800e-02
-2.261520588312106173e-02
9.046082353248441343e-03
4.523041176624192916e-03
1.809216470649685493e-02
2.261520588312107560e-02
-4.070737058961795829e-02
-1.809216470649686881e-02
9.046082353248413588e-03
2.080598941247139011e-01
1.809216470649685493e-02
1.266451529454780400e-01
-2.713824705974529627e-02
-1.356912352987264814e-02
1.809216470649685493e-02
0.000000000000000000e+00
2.713824705974529627e-02
5.879953529611478547e-02
1.356912352987266202e-02
1.356912352987266202e-02
9.046082353248433017e-02
2.261520588312107560e-02
1.356912352987266202e-02
8.141474117923588882e-02
1.130760294156054058e-01
1.447373176519749227e-01
2.804285529507013486e-01
3.844585000130583685e-01
3.618432941299372096e-01
5.020575706052879950e-01
5.970414353143964625e-01
3.527972117766888793e-01
2.713824705974529072e-01
2.306751000078350045e-01
8.141474117923588882e-02
0.000000000000000000e+00
0.000000000000000000e+00
0.000000000000000000e+00
-1.809216470649686187e-02
-6.784561764936324069e-02
-5.879953529611480628e-02
-1.085529882389811851e-01
-1.130760294156053919e-01
-4.975345294286637188e-02
-6.784561764936322681e-02
-3.618432941299372374e-02
-9.046082353248427466e-03
-4.070737058961794441e-02
-8.141474117923587495e-02
-6.377488059040143931e-01
-1.194082870628792925e+00
-1.207651994158665421e+00
-6.196566411975176214e-01
9.769768941508305549e-01
4.523041176624215787e+00
7.345418870837726821e+00
3.971230153076061420e+00
1.094575964743060181e+00
-4.794423647221668361e-01
-1.049345552976817864e+00
-8.322395764988557154e-01
-3.663663353065614858e-01
-2.532903058909560801e-01
-3.347050470701919966e-01
-4.523041176624216231e-01
-3.889815411896825892e-01
-3.844585000130583685e-01
-3.935045823663067543e-01
-3.663663353065614858e-01
-2.985207176571982313e-01
-2.985207176571982313e-01
-2.759055117740771834e-01
-2.759055117740771834e-01
-3.256589647169435553e-01
-3.256589647169435553e-01
-3.030437588338224519e-01
-3.799354588364341478e-01
-3.482741706000646031e-01
-3.347050470701919411e-01
-4.025506647195552512e-01
-4.613502000156699534e-01
-4.432580353091731817e-01
-5.065806117819121601e-01
-5.608571059014028082e-01
-5.653801470780269733e-01
-5.834723117845238560e-01
-5.291958176650332080e-01
-5.065806117819121601e-01
-3.889815411896825337e-01
-3.889815411896825337e-01
-3.211359235403193346e-01
-1.628294823584717776e-01
-1.175990705922295987e-01
-1.040299470623569644e-01
-4.975345294286637188e-02
3.618432941299372374e-02
0.000000000000000000e+00
9.046082353248431629e-02
4.523041176624215121e-02
3.166128823636950307e-02
5.427649411949058561e-02
9.046082353248431629e-02
3.166128823636950307e-02
5.427649411949058561e-02
6.784561764936322681e-02
9.046082353248431629e-02
4.975345294286637188e-02
9.950690588573274376e-02
1.040299470623569644e-01
5.879953529611479934e-02
1.221221117688538194e-01
7.236865882598744748e-02
4.523041176624215121e-02
2.261520588312107560e-02
4.523041176624215121e-02
-2.261520588312107560e-02
0.000000000000000000e+00
9.046082353248441343e-03
-1.809216470649685493e-02
1.356912352987264814e-02
3.618432941299373762e-02
-5.879953529611479934e-02
-9.046082353248427466e-03
-4.523041176624206794e-03
-7.689170000261165427e-02
-9.498386470910853696e-02
-4.070737058961793053e-02
-4.975345294286637188e-02
-4.070737058961793053e-02
-2.261520588312107560e-02
-7.236865882598744748e-02
-6.784561764936322681e-02
2.713824705974529627e-02
2.713824705974529627e-02
-7.236865882598744748e-02
-4.975345294286637188e-02
-1.809216470649685493e-02
0.000000000000000000e+00
-4.975345294286637188e-02
2.713824705974529627e-02
1.809216470649686881e-02
2.713824705974529627e-02
2.713824705974529627e-02
0.000000000000000000e+00
-3.618432941299370986e-02
-1.809216470649685493e-02
0.000000000000000000e+00
4.523041176624220672e-03
0.000000000000000000e+00
2.713824705974529627e-02
-2.261520588312107560e-02
1.809216470649686881e-02
9.046082353248441343e-03
-1.809216470649685493e-02
-2.713824705974528240e-02
2.713824705974529627e-02
-1.356912352987264814e-02
-1.356912352987264814e-02
3.166128823636951695e-02
-1.356912352987264814e-02
-1.356912352987264814e-02
1.809216470649686881e-02
-1.356912352987264814e-02
-3.166128823636950307e-02
-4.070737058961793053e-02
2.713824705974529627e-02
-4.070737058961794441e-02
-1.221221117688538194e-01
1.356912352987264814e-02
-4.523041176624215121e-02
-8.141474117923587495e-02
0.000000000000000000e+00
-2.713824705974529627e-02
0.000000000000000000e+00
4.523041176624220672e-03
1.356912352987264814e-02
-1.356912352987264814e-02
5.427649411949059255e-02
2.261520588312107560e-02
-3.618432941299373068e-02
0.000000000000000000e+00
3.166128823636951695e-02
0.000000000000000000e+00
-2.261520588312108254e-02
4.523041176624213733e-03
-4.523041176624213733e-03
0.000000000000000000e+00
-1.809216470649686187e-02
0.000000000000000000e+00
-2.713824705974529627e-02
2.261520588312107907e-02
3.166128823636951001e-02
2.261520588312107907e-02
2.261520588312107907e-02
5.879953529611480628e-02
0.000000000000000000e+00
1.809216470649686534e-02
6.332257647273902001e-02
2.261520588312107907e-02
4.975345294286637188e-02
9.498386470910852308e-02
1.809216470649686534e-02
-1.809216470649686187e-02
3.618432941299372374e-02
3.618432941299372374e-02
4.523041176624213733e-03
6.332257647273902001e-02
1.266451529454780400e-01
3.618432941299372374e-02
3.618432941299372374e-02
1.175990705922296126e-01
9.498386470910852308e-02
1.130760294156053919e-01
1.175990705922296126e-01
4.975345294286637188e-02
1.583064411818475570e-01
2.804285529507013486e-01
3.347050470701919966e-01
3.075668000104466726e-01
3.120898411870708378e-01
3.437511294234404380e-01
3.347050470701919966e-01
2.623363882442045214e-01
2.397211823610834458e-01
1.175990705922296126e-01
5.879953529611480628e-02
2.713824705974529627e-02
-6.784561764936324069e-02
0.000000000000000000e+00
9.498386470910852308e-02
-1.356912352987264814e-02
-2.261520588312107560e-02
4.523041176624213733e-03
3.618432941299373068e-02
-1.356912352987264120e-02
-9.046082353248427466e-03
4.523041176624213733e-03
-3.618432941299372374e-02
-4.523041176624216508e-02
-6.106105588442690690e-01
-1.108145088272932899e+00
-1.189559829452168760e+00
-6.287027235507660627e-01
8.910391117949704176e-01
3.858154123660455959e+00
7.576093970845560577e+00
4.061690976608545611e+00
1.230267200041786690e+00
-2.216290176545865909e-01
-8.684239059118494808e-01
-6.694100941403839933e-01
-2.261520588312107838e-01
-2.125829353013381218e-01
-2.442442235377076387e-01
-2.804285529507014041e-01
-2.306751000078349767e-01
-2.261520588312107838e-01
-2.623363882442045214e-01
-2.171059764779623424e-01
-2.125829353013381218e-01
-2.578133470675803007e-01
-1.899677294182170462e-01
-2.080598941247139011e-01
2.713824705974529627e-02
-1.583064411818475292e-01
-1.492603588285991156e-01
-1.809216470649686048e-01
-6.784561764936324069e-02
-1.130760294156053919e-01
-1.673525235350959706e-01
-1.899677294182170462e-01
-2.035368529480897082e-01
-2.351981411844591974e-01
-2.216290176545865631e-01
-2.125829353013381218e-01
-1.628294823584717499e-01
-2.216290176545865631e-01
-1.899677294182170462e-01
-1.402142764753506743e-01
-1.266451529454780400e-01
0.000000000000000000e+00
5.879953529611480628e-02
-3.166128823636951001e-02
4.523041176624215121e-02
1.809216470649686048e-01
2.125829353013381495e-01
2.442442235377076387e-01
2.713824705974529072e-01
1.673525235350959983e-01
1.763986058883444397e-01
2.397211823610834180e-01
2.125829353013381495e-01
1.809216470649686048e-01
2.216290176545865354e-01
1.718755647117202190e-01
1.809216470649686048e-01
1.899677294182170462e-01
1.990138117714654875e-01
1.809216470649686048e-01
1.718755647117202190e-01
2.306751000078349767e-01
1.492603588285991156e-01
1.718755647117202190e-01
2.171059764779623147e-01
1.266451529454780123e-01
1.492603588285991156e-01
1.311681941221022329e-01
7.689170000261165427e-02
2.713824705974529627e-02
2.713824705974529627e-02
-1.809216470649686187e-02
3.618432941299372374e-02
6.784561764936324069e-02
6.784561764936324069e-02
2.713824705974529627e-02
3.618432941299372374e-02
2.713824705974529627e-02
2.713824705974529627e-02
2.261520588312107560e-02
2.713824705974529627e-02
-2.261520588312107907e-02
-4.070737058961794441e-02
7.236865882598746136e-02
2.713824705974529627e-02
2.713824705974529627e-02
-4.523041176624213733e-03
-4.523041176624213733e-03
-4.975345294286637188e-02
0.000000000000000000e+00
7.236865882598746136e-02
0.000000000000000000e+00
-4.975345294286637882e-02
4.523041176624213733e-03
-1.356912352987264814e-02
-2.261520588312107907e-02
2.713824705974529281e-02
-1.809216470649686187e-02
-2.261520588312107907e-02
4.975345294286637188e-02
5.427649411949057867e-02
-2.713824705974529627e-02
2.713824705974529281e-02
-1.718755647117201912e-01
-9.046082353248431629e-02
-6.784561764936324069e-02
4.523041176624217202e-03
-3.618432941299372374e-02
-7.236865882598744748e-02
-9.046082353248430935e-03
-1.356912352987264814e-02
4.523041176624217202e-03
-2.261520588312107907e-02
-4.070737058961794441e-02
-8.593778235586010950e-02
-4.523041176624215468e-03
-4.523041176624215468e-03
-4.975345294286637188e-02
-6.784561764936324069e-02
-1.809216470649686187e-02
-4.975345294286637188e-02
9.046082353248432670e-03
5.427649411949059255e-02
4.070737058961794441e-02
4.523041176624215468e-03
-9.046082353248430935e-03
-4.975345294286637188e-02
-7.236865882598744748e-02
0.000000000000000000e+00
1.809216470649686187e-02
-9.046082353248430935e-03
-6.332257647273902001e-02
-4.523041176624215814e-02
4.523041176624215468e-03
-1.809216470649686187e-02
-4.523041176624215468e-03
-5.427649411949058561e-02
-1.809216470649686187e-02
-4.523041176624215468e-03
-9.046082353248430935e-03
4.523041176624215814e-02
7.236865882598744748e-02
4.523041176624215468e-03
0.000000000000000000e+00
2.713824705974529627e-02
3.166128823636951001e-02
8.593778235586009562e-02
1.809216470649686326e-01
2.442442235377076665e-01
1.990138117714655153e-01
2.487672647143318871e-01
3.980276235429309750e-01
3.799354588364340923e-01
3.663663353065614858e-01
3.799354588364340923e-01
2.351981411844592251e-01
6.784561764936324069e-02
6.332257647273902001e-02
-9.046082353248430935e-03
-3.618432941299373068e-02
9.046082353248430935e-03
0.000000000000000000e+00
-6.784561764936322681e-02
-6.332257647273902001e-02
-7.236865882598744748e-02
-1.175990705922295987e-01
-1.040299470623569644e-01
-2.261520588312107560e-02
-2.713824705974528934e-02
-3.166128823636951001e-02
-2.171059764779623702e-01
-9.814999353274549421e-01
-1.171467664745671877e+00
-8.503317412053525981e-01
2.578133470675803007e-01
2.799762488330389765e+00
6.761946559053201966e+00
6.526748417868742713e+00
2.822377694213510591e+00
7.643939588494924608e-01
-1.990138117714654875e-01
-1.031253388270321203e+00
-1.013161223563824320e+00
-4.975345294286636633e-01
-3.980276235429309750e-01
-4.206428294260520229e-01
-3.075668000104466726e-01
-3.708893764831856510e-01
-3.663663353065614303e-01
-2.713824705974529072e-01
-3.347050470701919411e-01
-3.799354588364340923e-01
-3.120898411870708378e-01
-2.894746353039497899e-01
-3.166128823636950584e-01
-3.708893764831856510e-01
-3.980276235429309750e-01
-4.387349941325489056e-01
-4.206428294260520229e-01
-4.070737058961794164e-01
-4.703962823689184503e-01
-4.839654058987910568e-01
-4.613502000156699534e-01
-5.382419000182816493e-01
-5.699031882546512495e-01
-6.106105588442691801e-01
-6.422718470806386692e-01
-6.332257647273902279e-01
-5.518110235481543668e-01
-4.658732411922941741e-01
-4.749193235455426154e-01
-4.342119529559246849e-01
-3.347050470701919411e-01
-2.261520588312107838e-01
-1.221221117688538194e-01
2.713824705974529281e-02
1.130760294156053919e-01
2.080598941247139289e-01
2.578133470675803007e-01
2.578133470675803007e-01
2.894746353039497899e-01
3.301820058935677760e-01
3.211359235403193346e-01
3.030437588338224519e-01
3.256589647169435553e-01
3.211359235403193346e-01
3.166128823636951140e-01
3.889815411896825892e-01
3.935045823663067543e-01
3.030437588338224519e-01
2.894746353039497899e-01
3.663663353065614858e-01
3.211359235403193346e-01
2.849515941273256248e-01
2.668594294208287421e-01
3.301820058935677760e-01
2.759055117740771834e-01
2.713824705974529281e-02
1.763986058883444119e-01
1.718755647117202190e-01
2.035368529480897082e-01
2.035368529480897082e-01
1.221221117688538194e-01
1.266451529454780400e-01
1.266451529454780400e-01
7.689170000261166815e-02
3.618432941299372374e-02
5.879953529611479934e-02
2.713824705974529281e-02
3.166128823636951001e-02
5.879953529611479934e-02
7.689170000261166815e-02
0.000000000000000000e+00
5.427649411949059255e-02
2.261520588312107560e-02
3.166128823636951001e-02
2.713824705974529281e-02
4.523041176624215121e-02
-2.261520588312107907e-02
1.356912352987264640e-02
2.713824705974529281e-02
-9.046082353248430935e-03
-4.523041176624216508e-02
-3.166128823636951695e-02
-7.236865882598746136e-02
-1.085529882389811712e-01
-4.523041176624216508e-02
-6.784561764936324069e-02
-1.221221117688538332e-01
-1.040299470623569644e-01
-6.332257647273903389e-02
-5.879953529611479934e-02
-7.689170000261165427e-02
1.356912352987264814e-02
4.523041176624216508e-02
1.040299470623569644e-01
9.498386470910852308e-02
2.125829353013381495e-01
3.392280882468161618e-01
3.482741706000646031e-01
3.256589647169435553e-01
2.985207176571982313e-01
1.899677294182170462e-01
7.689170000261166815e-02
0.000000000000000000e+00
0.000000000000000000e+00
0.000000000000000000e+00
-2.713824705974526852e-02
-7.689170000261169591e-02
-4.070737058961793053e-02
-7.689170000261169591e-02
-7.236865882598741972e-02
-4.523041176624215121e-02
-8.593778235586013725e-02
-1.130760294156054613e-01
-4.523041176624220672e-02
-7.236865882598741972e-02
-1.402142764753506743e-01
-6.241796823741416755e-01
-1.307158900044398386e+00
-1.289066735337901282e+00
-5.291958176650333190e-01
1.099099005919684569e+00
4.495902929564470796e+00
7.512771394372822265e+00
4.780854523691795421e+00
1.763986058883444175e+00
8.593778235586013725e-02
-8.231934941456071630e-01
-1.298112817691149834e+00
-9.453156059144611767e-01
-5.382419000182816493e-01
-5.156266941351606015e-01
-5.518110235481543668e-01
-5.563340647247785320e-01
-5.699031882546512495e-01
-6.151336000208933452e-01
-5.879953529611481322e-01
-5.111036529585364363e-01
-5.065806117819120491e-01
-5.291958176650333190e-01
-5.563340647247785320e-01
-5.879953529611481322e-01
-5.699031882546512495e-01
-5.834723117845237450e-01
-6.603640117871354409e-01
-6.784561764936323236e-01
-7.146405059066260890e-01
-7.553478764962440195e-01
-8.412856588521040457e-01
-8.503317412053525981e-01
-9.227004000313399068e-01
-9.543616882677095070e-01
-1.022207305917072651e+00
-9.227004000313399068e-01
-9.543616882677095070e-01
-9.046082353248430241e-01
-8.774699882650978111e-01
-8.231934941456071630e-01
-7.010713823767533714e-01
-5.789492706078995798e-01
-4.161197882494278577e-01
-3.437511294234403270e-01
-1.537834000052232808e-01
-6.332257647273897838e-02
0.000000000000000000e+00
7.236865882598741972e-02
7.689170000261169591e-02
3.618432941299376537e-02
7.236865882598741972e-02
2.261520588312104785e-02
1.356912352987271753e-02
7.236865882598741972e-02
9.498386470910852308e-02
-1.085529882389811851e-01
1.356912352987271753e-02
5.879953529611481322e-02
6.332257647273908940e-02
3.256589647169435553e-01
6.784561764936325456e-02
-3.075668000104466726e-01
1.809216470649688269e-02
-9.046082353248441343e-03
4.523041176624276183e-03
-5.427649411949053704e-02
-6.332257647273897838e-02
-2.713824705974532403e-02
-3.618432941299376537e-02
-9.046082353248430241e-02
-2.713824705974532403e-02
-3.618432941299376537e-02
-7.689170000261169591e-02
-4.523041176624276183e-03
4.523041176624165161e-03
0.000000000000000000e+00
-7.236865882598753075e-02
0.000000000000000000e+00
-4.523041176624276183e-03
-3.166128823636960021e-02
2.261520588312104785e-02
-1.809216470649688269e-02
-6.784561764936325456e-02
3.618432941299376537e-02
-4.523041176624220672e-02
-4.070737058961793053e-02
3.618432941299370986e-02
-3.166128823636948919e-02
0.000000000000000000e+00
4.975345294286637188e-02
0.000000000000000000e+00
-2.713824705974526852e-02
0.000000000000000000e+00
2.261520588312110336e-02
-2.713824705974532403e-02
-2.261520588312110336e-02
6.784561764936325456e-02
4.523041176624215121e-02
4.523041176624220672e-03
-4.523041176624220672e-03
-1.356912352987266202e-02
-5.427649411949059255e-02
2.261520588312110336e-02
-4.523041176624220672e-03
-5.879953529611481322e-02
0.000000000000000000e+00
-4.523041176624220672e-03
0.000000000000000000e+00
0.000000000000000000e+00
2.713824705974529627e-02
9.498386470910855084e-02
2.351981411844592251e-01
3.527972117766888238e-01
3.573202529533130445e-01
5.291958176650333190e-01
6.467948882572628344e-01
5.427649411949058145e-01
5.246727764884090428e-01
4.477810764857973469e-01
3.392280882468161618e-01
1.175990705922296264e-01
2.261520588312107560e-02
4.070737058961795829e-02
-9.046082353248441343e-03
-2.261520588312110336e-02
4.523041176624192916e-03
-9.046082353248430241e-02
-9.950690588573274376e-02
-2.261520588312107560e-02
-4.523041176624192916e-03
-2.261520588312107560e-02
4.070737058961795829e-02
4.070737058961795829e-02
5.427649411949059255e-02
-2.939976764805740661e-01
-9.453156059144611767e-01
-1.148852458862550829e+00
-8.910391117949705286e-01
4.115967470728035815e-01
2.682163417738160138e+00
7.304711500248108003e+00
6.002075641380334226e+00
2.252474505958859563e+00
3.030437588338224519e-01
-7.463017941429955782e-01
-8.774699882650978111e-01
-4.206428294260520229e-01
-7.236865882598747524e-02
-7.236865882598747524e-02
-1.175990705922296264e-01
-7.689170000261169591e-02
-5.427649411949059255e-02
-9.498386470910852308e-02
-5.879953529611481322e-02
1.809216470649685493e-02
0.000000000000000000e+00
0.000000000000000000e+00
3.166128823636951695e-02
3.166128823636951695e-02
-9.046082353248413588e-03
1.356912352987264814e-01
8.593778235586010950e-02
6.332257647273903389e-02
6.332257647273903389e-02
4.523041176624215121e-02
-2.713824705974529627e-02
-3.166128823636951695e-02
-5.427649411949059255e-02
-6.784561764936322681e-02
-1.130760294156054058e-01
-7.689170000261166815e-02
-9.498386470910852308e-02
-7.689170000261166815e-02
9.046082353248434405e-03
-9.046082353248434405e-03
0.000000000000000000e+00
0.000000000000000000e+00
0.000000000000000000e+00
0.000000000000000000e+00
0.000000000000000000e+00
0.000000000000000000e+00
0.000000000000000000e+00
3.166128823636948919e-02
1.040299470623569089e-01
-3.166128823636948919e-02
-3.166128823636948919e-02
3.618432941299376537e-02
0.000000000000000000e+00
-4.070737058961793053e-02
3.166128823636948919e-02
-1.356912352987271753e-02
0.000000000000000000e+00
1.356912352987260650e-02
1.356912352987271753e-02
-4.070737058961793053e-02
9.046082353248441343e-03
3.618432941299376537e-02
9.046082353248441343e-03
3.618432941299376537e-02
9.950690588573274376e-02
0.000000000000000000e+00
-9.046082353248441343e-03
1.356912352987271753e-02
-9.046082353248441343e-03
-1.492603588285991156e-01
0.000000000000000000e+00
-4.975345294286637188e-02
0.000000000000000000e+00
4.523041176624165161e-03
-2.171059764779623147e-01
4.523041176624220672e-02
1.809216470649677166e-02
2.713824705974521301e-02
-4.975345294286637188e-02
-3.618432941299376537e-02
2.261520588312104785e-02
-4.523041176624220672e-02
-4.523041176624165161e-03
3.618432941299376537e-02
0.000000000000000000e+00
-2.261520588312104785e-02
-4.523041176624165161e-03
-1.356912352987260650e-02
-9.046082353248441343e-03
6.784561764936325456e-02
-1.809216470649688269e-02
-2.261520588312104785e-02
4.523041176624276183e-03
1.809216470649688269e-02
1.356912352987271753e-02
4.523041176624276183e-03
7.236865882598753075e-02
2.713824705974532403e-02
2.713824705974532403e-02
9.950690588573274376e-02
6.332257647273908940e-02
4.975345294286637188e-02
7.689170000261169591e-02
3.618432941299376537e-02
-3.618432941299365435e-02
2.713824705974532403e-02
7.689170000261169591e-02
7.236865882598753075e-02
9.046082353248430241e-02
1.402142764753506743e-01
7.689170000261169591e-02
4.523041176624220672e-02
6.784561764936325456e-02
7.689170000261169591e-02
7.689170000261169591e-02
8.593778235586013725e-02
7.236865882598753075e-02
3.166128823636948919e-02
7.689170000261169591e-02
7.689170000261169591e-02
5.427649411949064806e-02
7.236865882598753075e-02
7.236865882598753075e-02
6.784561764936325456e-02
2.261520588312115887e-02
1.040299470623570199e-01
1.944907705948413223e-01
2.442442235377076942e-01
3.166128823636951140e-01
3.935045823663068099e-01
5.291958176650333190e-01
5.337188588416574841e-01
4.296889117793005752e-01
3.347050470701919966e-01
2.397211823610834180e-01
7.689170000261169591e-02
0.000000000000000000e+00
0.000000000000000000e+00
0.000000000000000000e+00
-1.809216470649682718e-02
-7.236865882598741972e-02
-9.498386470910846757e-02
-1.899677294182170462e-01
-1.718755647117201635e-01
-1.311681941221022329e-01
-9.498386470910852308e-02
-4.975345294286637188e-02
-1.809216470649688269e-02
-5.427649411949059255e-02
-1.718755647117201912e-01
-8.412856588521040457e-01
-1.225744158865162525e+00
-1.320728023574270882e+00
-5.744262294312754147e-01
1.365958435340513200e+00
4.658732411922941630e+00
7.680123917907918596e+00
3.523449076590263740e+00
8.458087000287284329e-01
-4.070737058961794164e-01
-9.181773588547157416e-01
-5.653801470780269733e-01
-2.532903058909560801e-01
5.879953529611479934e-02
-2.623363882442045214e-01
-3.708893764831857065e-01
-4.025506647195551957e-01
-3.844585000130583685e-01
-4.070737058961794164e-01
-4.070737058961794164e-01
-3.618432941299372652e-01
-3.889815411896825337e-01
-3.889815411896825337e-01
-3.799354588364340923e-01
-3.618432941299372652e-01
-3.708893764831856510e-01
-3.437511294234403825e-01
-4.070737058961794164e-01
-3.301820058935677760e-01
-3.799354588364341478e-01
-4.251658706026762991e-01
-4.206428294260520784e-01
-4.568271588390457327e-01
-4.613502000156700089e-01
-4.296889117793004642e-01
-4.387349941325489056e-01
-4.477810764857973469e-01
-4.251658706026762435e-01
-3.889815411896825337e-01
-2.894746353039497899e-01
-2.351981411844591974e-01
-2.261520588312107838e-01
-1.085529882389811573e-01
0.000000000000000000e+00
9.046082353248430241e-02
1.944907705948412668e-01
1.899677294182170462e-01
1.899677294182170462e-01
2.351981411844591974e-01
2.578133470675803007e-01
2.668594294208287421e-01
2.985207176571982313e-01
3.211359235403193346e-01
2.532903058909560801e-01
2.623363882442045214e-01
2.985207176571982313e-01
3.708893764831856510e-01
2.894746353039497899e-01
3.120898411870708933e-01
2.894746353039497899e-01
2.306751000078349767e-01
2.849515941273255693e-01
3.347050470701919411e-01
2.939976764805740106e-01
2.804285529507013486e-01
2.261520588312107838e-01
1.628294823584717499e-01
1.628294823584717499e-01
2.351981411844591974e-01
1.628294823584717499e-01
1.402142764753506743e-01
8.141474117923587495e-02
7.689170000261166815e-02
4.975345294286637188e-02
1.130760294156053780e-01
9.498386470910852308e-02
1.266451529454780123e-01
1.130760294156053780e-01
1.402142764753506743e-01
4.523041176624192916e-03
4.975345294286637188e-02
9.950690588573272988e-02
9.498386470910852308e-02
5.879953529611478547e-02
9.046082353248413588e-03
-4.975345294286637188e-02
-7.236865882598747524e-02
0.000000000000000000e+00
-1.085529882389811851e-01
-9.046082353248430241e-02
-1.356912352987266202e-02
2.261520588312107560e-02
5.427649411949059255e-02
5.879953529611481322e-02
0.000000000000000000e+00
-9.046082353248433017e-02
-1.130760294156053780e-01
-5.879953529611478547e-02
3.437511294234403825e-01
8.141474117923588882e-02
1.356912352987263426e-02
-4.523041176624220672e-03
-4.975345294286639963e-02
-2.713824705974529627e-02
-5.427649411949062030e-02
-9.046082353248433017e-02
2.261520588312107560e-02
0.000000000000000000e+00
-6.784561764936322681e-02
-2.261520588312107560e-02
-1.809216470649688269e-02
-3.618432941299373762e-02
-2.261520588312107560e-02
-4.523041176624220672e-03
-4.975345294286639963e-02
-1.085529882389812129e-01
-5.427649411949062030e-02
-5.427649411949062030e-02
-5.427649411949056479e-02
-9.950690588573277151e-02
-4.523041176624217896e-02
-2.713824705974529627e-02
-4.070737058961795829e-02
-3.618432941299373762e-02
-9.950690588573271600e-02
-7.689170000261166815e-02
-4.523041176624192916e-03
4.523041176624192916e-03
-2.713824705974532403e-02
-2.713824705974532403e-02
-4.975345294286637188e-02
-3.166128823636954470e-02
0.000000000000000000e+00
9.046082353248413588e-03
1.809216470649685493e-02
7.689170000261166815e-02
3.618432941299373762e-02
2.713824705974529627e-02
7.236865882598744748e-02
2.171059764779623702e-01
2.442442235377076387e-01
2.985207176571982313e-01
4.206428294260520784e-01
4.930114882520395536e-01
4.794423647221668361e-01
4.930114882520395536e-01
4.161197882494278577e-01
2.759055117740771834e-01
1.492603588285991434e-01
5.879953529611481322e-02
1.356912352987266202e-02
7.236865882598747524e-02
6.332257647273903389e-02
-9.046082353248385832e-03
-1.356912352987260650e-02
1.356912352987266202e-02
1.356912352987266202e-02
-4.070737058961793053e-02
5.879953529611481322e-02
-2.713824705974526852e-02
9.046082353248441343e-03
4.070737058961795829e-02
-3.166128823636950584e-01
-1.004115141210575768e+00
-1.108145088272932677e+00
-7.236865882598745303e-01
3.980276235429309750e-01
3.098283205987588218e+00
6.865976506115559097e+00
5.784969664902371633e+00
2.442442235377076720e+00
5.925183941377722974e-01
-3.030437588338223964e-01
-9.769768941508305549e-01
-7.960552470858619500e-01
-3.754124176598099272e-01
-2.894746353039497899e-01
-3.166128823636950584e-01
-2.939976764805740661e-01
-2.985207176571982313e-01
-2.035368529480896804e-01
-2.623363882442045769e-01
-2.578133470675803007e-01
-2.804285529507013486e-01
-2.125829353013381218e-01
-2.623363882442044659e-01
-2.668594294208287421e-01
-2.532903058909561356e-01
-2.623363882442044659e-01
-3.256589647169435553e-01
-2.759055117740771279e-01
-2.985207176571981758e-01
-3.980276235429309195e-01
-4.206428294260520784e-01
-4.251658706026762435e-01
-4.658732411922941741e-01
-4.794423647221668916e-01
-4.658732411922941741e-01
-5.065806117819120491e-01
-5.337188588416574841e-01
-3.980276235429309195e-01
-3.754124176598098717e-01
-2.759055117740771279e-01
-2.080598941247139289e-01
-1.809216470649686048e-01
-5.427649411949059255e-02
0.000000000000000000e+00
0.000000000000000000e+00
0.000000000000000000e+00
0.000000000000000000e+00
0.000000000000000000e+00
0.000000000000000000e+00
0.000000000000000000e+00
5.427649411949059255e-02
-1.356912352987266202e-02
1.809216470649682718e-02
9.046082353248441343e-03
1.356912352987260650e-02
0.000000000000000000e+00
9.046082353248430241e-02
2.261520588312104785e-02
1.809216470649682718e-02
6.332257647273897838e-02
1.809216470649682718e-02
4.523041176624220672e-03
6.784561764936319905e-02
8.141474117923586107e-02
-4.523041176624220672e-03
-4.523041176624220672e-03
0.000000000000000000e+00
-4.070737058961798605e-02
-6.332257647273903389e-02
4.523041176624220672e-03
-7.689170000261169591e-02
-1.402142764753507020e-01
-6.784561764936325456e-02
-8.141474117923591658e-02
-5.427649411949059255e-02
-5.427649411949059255e-02
-2.261520588312110336e-02
-5.879953529611481322e-02
0.000000000000000000e+00
9.046082353248385832e-03
-9.046082353248441343e-03
-1.356912352987260650e-02
4.523041176624220672e-03
2.713824705974532403e-02
4.070737058961793053e-02
2.713824705974526852e-02
7.236865882598741972e-02
-4.975345294286637188e-02
0.000000000000000000e+00
-1.809216470649682718e-02
-4.070737058961793053e-02
1.356912352987266202e-02
4.523041176624215121e-02
-2.261520588312110336e-02
-1.356912352987266202e-02
9.046082353248435792e-02
1.356912352987266202e-02
4.975345294286631637e-02
6.332257647273903389e-02
1.085529882389811296e-01
6.784561764936319905e-02
7.236865882598747524e-02
5.879953529611475771e-02
1.356912352987266202e-02
7.689170000261164040e-02
6.332257647273903389e-02
6.332257647273903389e-02
6.332257647273903389e-02
8.141474117923591658e-02
6.784561764936319905e-02
1.175990705922295709e-01
1.085529882389811296e-01
7.689170000261164040e-02
6.332257647273903389e-02
1.130760294156054058e-01
8.593778235586008174e-02
1.492603588285990601e-01
1.854446882415928255e-01
1.583064411818475015e-01
2.306751000078350322e-01
3.844585000130583130e-01
3.527972117766888238e-01
4.251658706026762435e-01
4.975345294286637743e-01
5.789492706078995798e-01
5.653801470780270844e-01
4.975345294286637743e-01
4.930114882520394981e-01
2.668594294208286866e-01
8.593778235586008174e-02
5.427649411949059255e-02
6.332257647273903389e-02
5.427649411949059255e-02
5.879953529611475771e-02
-3.618432941299370986e-02
-8.141474117923586107e-02
-7.236865882598747524e-02
-1.356912352987266202e-02
-4.975345294286637188e-02
-7.689170000261169591e-02
-6.332257647273903389e-02
-4.523041176624215121e-02
-4.523041176624215121e-02
-3.844585000130583685e-01
-1.081006841213187464e+00
-1.144329417685926664e+00
-6.920253000235050411e-01
5.563340647247785320e-01
3.491787788353894584e+00
7.689170000261166926e+00
5.667370594310142451e+00
2.085121982423763232e+00
2.442442235377075832e-01
-6.829792176702565998e-01
-1.194082870628792925e+00
-8.865160706183463635e-01
-4.161197882494278577e-01
-3.754124176598099272e-01
-3.799354588364341478e-01
-3.935045823663068099e-01
-4.342119529559247404e-01
-4.070737058961794164e-01
-3.980276235429309750e-01
-3.799354588364341478e-01
-3.935045823663067543e-01
-3.708893764831857065e-01
-3.844585000130583130e-01
-4.115967470728036370e-01
-4.432580353091731262e-01
-3.980276235429309750e-01
-4.387349941325489056e-01
-4.568271588390457882e-01
-4.115967470728036370e-01
-4.794423647221668916e-01
-5.337188588416574841e-01
-5.653801470780269733e-01
-5.699031882546512495e-01
-5.653801470780269733e-01
-6.015644764910207387e-01
-6.739331353170081584e-01
-6.558409706105112758e-01
-6.241796823741417866e-01
-5.427649411949059255e-01
-5.111036529585364363e-01
-3.889815411896825337e-01
-2.894746353039497899e-01
-2.125829353013380940e-01
-8.593778235586008174e-02
7.689170000261164040e-02
1.402142764753506743e-01
1.944907705948412113e-01
2.216290176545865354e-01
2.216290176545865909e-01
2.261520588312108115e-01
2.578133470675803007e-01
2.759055117740771279e-01
2.442442235377076942e-01
2.668594294208287421e-01
2.080598941247139289e-01
2.216290176545865354e-01
2.532903058909561356e-01
2.532903058909561356e-01
2.125829353013381495e-01
2.351981411844592529e-01
2.351981411844592529e-01
1.356912352987265091e-01
1.311681941221022885e-01
1.809216470649686603e-01
1.221221117688538471e-01
9.046082353248435792e-02
1.718755647117202190e-01
1.311681941221022885e-01
8.593778235586013725e-02
4.975345294286637188e-02
1.492603588285991156e-01
9.950690588573274376e-02
4.523041176624215121e-02
6.332257647273903389e-02
3.166128823636954470e-02
2.713824705974532403e-02
8.141474117923591658e-02
6.332257647273903389e-02
1.809216470649688269e-02
7.689170000261169591e-02
6.784561764936325456e-02
6.784561764936325456e-02
6.784561764936325456e-02
2.713824705974532403e-02
0.000000000000000000e+00
4.070737058961793053e-02
7.236865882598747524e-02
-3.618432941299370986e-02
1.356912352987266202e-02
4.070737058961793053e-02
-2.713824705974526852e-02
-9.046082353248441343e-03
4.070737058961798605e-02
-1.809216470649682718e-02
-2.261520588312104785e-02
4.070737058961793053e-02
0.000000000000000000e+00
-3.166128823636951695e-02
-1.356912352987266202e-02
9.046082353248441343e-03
-1.356912352987263426e-02
2.713824705974526852e-02
5.879953529611481322e-02
-1.809216470649685493e-02
-4.070737058961793053e-02
4.523041176624220672e-03
-1.356912352987263426e-02
-5.427649411949059255e-02
8.141474117923591658e-02
-9.950690588573277151e-02
-9.046082353248433017e-02
-1.537834000052233363e-01
-8.141474117923588882e-02
0.000000000000000000e+00
-8.141474117923588882e-02
-4.523041176624220672e-03
1.763986058883444119e-01
3.844585000130582575e-01
-3.166128823636951695e-02
1.673525235350959706e-01
-6.784561764936325456e-02
7.236865882598744748e-02
-2.487672647143318594e-01
-1.040299470623569644e-01
-4.070737058961795829e-02
1.356912352987263426e-02
1.492603588285991434e-01
2.261520588312107838e-01
2.532903058909560245e-01
3.211359235403193346e-01
4.206428294260520784e-01
4.613502000156700089e-01
2.668594294208287421e-01
3.573202529533130445e-01
2.532903058909560245e-01
1.492603588285991156e-01
3.166128823636951001e-02
2.713824705974529627e-02
0.000000000000000000e+00
-1.356912352987264640e-02
-1.356912352987264640e-02
-5.879953529611480628e-02
-1.221221117688538194e-01
-6.332257647273902001e-02
-1.040299470623569644e-01
-9.498386470910853696e-02
-6.784561764936324069e-02
4.523041176624216508e-02
-1.809216470649686881e-02
-1.221221117688538194e-01
-7.417787529663713020e-01
-1.203128952982041255e+00
-1.216698076511913973e+00
-4.794423647221668361e-01
1.198605911805417090e+00
4.387349941325489056e+00
7.159974182596133829e+00
3.469172582470773314e+00
7.553478764962440195e-01
-5.246727764884090428e-01
-1.067437717683314968e+00
-7.101174647300018128e-01
-2.804285529507013486e-01
-2.035368529480896804e-01
-3.166128823636951140e-01
-2.894746353039497899e-01
-2.713824705974529627e-01
-2.623363882442045214e-01
-2.759055117740771279e-01
-2.397211823610834180e-01
-2.080598941247139289e-01
-2.261520588312107838e-01
-2.216290176545865631e-01
-2.171059764779623424e-01
-2.894746353039497899e-01
-2.125829353013381218e-01
-1.990138117714654598e-01
-2.985207176571982313e-01
-2.216290176545865909e-01
-1.447373176519748950e-01
-2.442442235377076665e-01
-2.442442235377076665e-01
-2.713824705974529072e-01
-2.939976764805740661e-01
-3.030437588338224519e-01
-3.166128823636950584e-01
-2.894746353039498454e-01
-3.030437588338224519e-01
-2.125829353013380940e-01
-1.402142764753506743e-01
-1.447373176519749505e-01
-5.427649411949059255e-02
8.141474117923588882e-02
8.141474117923588882e-02
1.402142764753506743e-01
2.713824705974529072e-01
3.120898411870708933e-01
3.527972117766888238e-01
4.342119529559246849e-01
3.935045823663067543e-01
3.618432941299372652e-01
3.527972117766888238e-01
3.437511294234403825e-01
3.663663353065614858e-01
3.075668000104466726e-01
3.301820058935677205e-01
3.120898411870708933e-01
3.437511294234403825e-01
3.618432941299372652e-01
2.623363882442045214e-01
2.939976764805740661e-01
3.120898411870708933e-01
2.397211823610834458e-01
2.487672647143318871e-01
2.713824705974529627e-01
2.623363882442044659e-01
1.944907705948412391e-01
1.944907705948412391e-01
2.125829353013381218e-01
1.402142764753506743e-01
1.537834000052233085e-01
1.537834000052233085e-01
1.130760294156053503e-01
1.221221117688537916e-01
1.402142764753506743e-01
1.085529882389811296e-01
1.085529882389811296e-01
6.784561764936319905e-02
3.618432941299370986e-02
4.070737058961793053e-02
6.332257647273897838e-02
4.523041176624215121e-02
4.523041176624215121e-02
3.618432941299370986e-02
4.070737058961793053e-02
-2.261520588312110336e-02
-1.356912352987266202e-02
2.261520588312110336e-02
1.356912352987266202e-02
-3.618432941299376537e-02
9.046082353248441343e-03
-4.523041176624220672e-03
0.000000000000000000e+00
-2.261520588312104785e-02
-4.523041176624209569e-02
-1.356912352987271753e-02
4.070737058961798605e-02
7.236865882598741972e-02
0.000000000000000000e+00
0.000000000000000000e+00
-6.784561764936325456e-02
0.000000000000000000e+00
0.000000000000000000e+00
4.523041176624220672e-02
-2.261520588312115887e-02
9.046082353248441343e-03
2.713824705974532403e-02
0.000000000000000000e+00
-4.523041176624220672e-02
0.000000000000000000e+00
-5.879953529611481322e-02
-4.523041176624209569e-02
0.000000000000000000e+00
9.046082353248441343e-03
-2.713824705974532403e-02
-9.950690588573274376e-02
-8.593778235586013725e-02
-1.175990705922296264e-01
-1.356912352987271753e-02
2.713824705974532403e-02
-9.498386470910846757e-02
-6.332257647273897838e-02
-2.261520588312104785e-02
-2.035368529480897637e-01
-9.046082353248430241e-02
2.713824705974532403e-02
1.447373176519749505e-01
-3.618432941299365435e-02
2.487672647143318594e-01
4.025506647195551957e-01
4.523041176624215676e-01
4.115967470728035815e-01
3.437511294234403270e-01
2.849515941273255137e-01
1.130760294156054613e-01
9.046082353248430241e-02
-3.618432941299365435e-02
-3.618432941299376537e-02
2.713824705974521301e-02
0.000000000000000000e+00
-3.618432941299376537e-02
-8.141474117923597209e-02
-9.046082353248430241e-02
-1.085529882389811851e-01
-6.332257647273897838e-02
-5.427649411949064806e-02
-3.166128823636948919e-02
-5.427649411949064806e-02
-7.236865882598753075e-02
-4.342119529559247404e-01
-1.108145088272932677e+00
-1.144329417685926442e+00
-9.362695235612126243e-01
1.628294823584717221e-01
2.786193364800516825e+00
6.287027235507659739e+00
5.513587194304919059e+00
2.234382341252362458e+00
3.844585000130582575e-01
-5.653801470780270844e-01
-1.144329417685926442e+00
-8.548547823819767633e-01
-4.206428294260520229e-01
-2.759055117740771834e-01
-2.759055117740771834e-01
-2.894746353039499009e-01
-2.985207176571982313e-01
-3.211359235403192791e-01
-2.623363882442044659e-01
-2.351981411844592529e-01
-1.899677294182171572e-01
-2.713824705974530183e-01
-2.216290176545865354e-01
-1.990138117714654875e-01
-2.442442235377075832e-01
-2.261520588312109226e-01
-2.713824705974530183e-01
-2.261520588312109226e-01
-3.075668000104467836e-01
-2.804285529507013486e-01
-2.623363882442044659e-01
-3.075668000104467836e-01
-3.618432941299372096e-01
-4.206428294260520229e-01
-4.432580353091730707e-01
-4.206428294260520229e-01
-4.161197882494278577e-01
-3.392280882468161618e-01
-3.075668000104467836e-01
-2.623363882442044659e-01
-1.718755647117202745e-01
-1.447373176519748394e-01
0.000000000000000000e+00
0.000000000000000000e+00
0.000000000000000000e+00
0.000000000000000000e+00
0.000000000000000000e+00
0.000000000000000000e+00
0.000000000000000000e+00
5.879953529611481322e-02
3.166128823636948919e-02
-2.713824705974526852e-02
4.523041176624220672e-03
-4.523041176624220672e-03
-9.046082353248441343e-03
-3.166128823636948919e-02
2.713824705974532403e-02
0.000000000000000000e+00
-2.261520588312110336e-02
8.141474117923586107e-02
1.809216470649682718e-02
9.046082353248441343e-03
2.713824705974529627e-02
-4.523041176624220672e-03
2.713824705974529627e-02
5.427649411949059255e-02
-4.523041176624220672e-03
-5.427649411949056479e-02
-2.713824705974529627e-02
-3.618432941299373762e-02
-9.950690588573274376e-02
0.000000000000000000e+00
0.000000000000000000e+00
-1.356912352987263426e-02
-4.523041176624220672e-03
0.000000000000000000e+00
0.000000000000000000e+00
0.000000000000000000e+00
3.166128823636951695e-02
-4.523041176624220672e-03
-2.713824705974529627e-02
0.000000000000000000e+00
5.427649411949059255e-02
0.000000000000000000e+00
-1.809216470649685493e-02
2.261520588312108948e-02
5.879953529611481322e-02
4.070737058961794441e-02
4.070737058961794441e-02
0.000000000000000000e+00
1.356912352987266202e-02
1.266451529454780400e-01
9.498386470910853696e-02
8.593778235586010950e-02
1.040299470623569644e-01
9.046082353248433017e-02
9.046082353248441343e-03
6.784561764936324069e-02
1.311681941221022607e-01
1.944907705948412946e-01
2.985207176571982313e-01
3.708893764831857065e-01
4.161197882494278577e-01
4.296889117793004642e-01
5.111036529585364363e-01
5.608571059014028082e-01
5.970414353143964625e-01
5.427649411949059255e-01
4.658732411922942296e-01
4.432580353091731817e-01
3.708893764831857065e-01
2.216290176545865909e-01
1.628294823584717776e-01
1.537834000052233363e-01
1.990138117714654875e-01
1.628294823584717776e-01
1.085529882389811851e-01
1.130760294156054058e-01
9.046082353248433017e-02
9.498386470910853696e-02
1.492603588285991156e-01
1.130760294156054058e-01
1.537834000052233363e-01
2.125829353013381495e-01
2.035368529480897082e-01
-5.879953529611481322e-02
-6.106105588442690690e-01
-9.995921000339516027e-01
-8.322395764988557154e-01
3.256589647169435553e-01
2.311274041254974154e+00
5.893522653141353373e+00
7.725354329674160248e+00
3.708893764831856732e+00
1.293589776514525669e+00
1.537834000052233363e-01
-8.141474117923588327e-01
-9.634077706209579484e-01
-5.382419000182816493e-01
-2.668594294208286866e-01
-2.171059764779623424e-01
-3.075668000104466726e-01
-3.437511294234404380e-01
-2.939976764805740661e-01
-2.849515941273256248e-01
-3.075668000104466171e-01
-2.578133470675803007e-01
-2.351981411844592251e-01
-2.261520588312107838e-01
-2.397211823610834458e-01
-2.985207176571982313e-01
-2.894746353039497899e-01
-2.351981411844592251e-01
-3.708893764831856510e-01
-3.935045823663067543e-01
-3.708893764831856510e-01
-3.935045823663067543e-01
-5.065806117819121601e-01
-5.291958176650333190e-01
-5.789492706078996909e-01
-6.015644764910207387e-01
-6.287027235507660627e-01
-6.377488059040143931e-01
-6.332257647273902279e-01
-5.608571059014028082e-01
-5.156266941351606015e-01
-4.703962823689183947e-01
-3.573202529533130445e-01
-1.583064411818475570e-01
-5.427649411949059255e-02
0.000000000000000000e+00
0.000000000000000000e+00
0.000000000000000000e+00
0.000000000000000000e+00
1.040299470623569644e-01
1.175990705922296264e-01
5.427649411949064806e-02
9.498386470910857859e-02
9.950690588573274376e-02
2.713824705974532403e-02
5.879953529611481322e-02
5.879953529611481322e-02
-9.046082353248424690e-02
2.713824705974532403e-02
1.085529882389811851e-01
1.221221117688539026e-01
5.879953529611481322e-02
1.402142764753506743e-01
2.080598941247139289e-01
1.040299470623570199e-01
6.332257647273908940e-02
7.236865882598753075e-02
4.523041176624276183e-03
0.000000000000000000e+00
4.070737058961793053e-02
-3.618432941299376537e-02
-4.523041176624276183e-03
0.000000000000000000e+00
-6.332257647273903389e-02
-7.689170000261169591e-02
-2.713824705974532403e-02
-4.523041176624276183e-03
-8.141474117923591658e-02
-5.427649411949059255e-02
-1.356912352987271753e-02
-5.427649411949059255e-02
-5.879953529611481322e-02
-1.356912352987260650e-02
-1.809216470649688269e-02
-2.261520588312104785e-02
-2.261520588312107560e-01
-4.070737058961793053e-02
-6.332257647273897838e-02
3.618432941299376537e-02
9.046082353248441343e-03
-4.523041176624165161e-03
4.070737058961793053e-02
-1.356912352987260650e-02
-7.236865882598741972e-02
-1.356912352987260650e-02
1.356912352987271753e-02
0.000000000000000000e+00
3.618432941299376537e-02
1.809216470649688269e-02
-2.261520588312104785e-02
-1.356912352987260650e-02
4.523041176624220672e-02
1.809216470649688269e-02
4.070737058961793053e-02
3.618432941299365435e-02
1.356912352987271753e-02
4.070737058961793053e-02
6.332257647273897838e-02
-9.046082353248441343e-03
-4.523041176624276183e-03
2.171059764779623702e-01
0.000000000000000000e+00
9.046082353248441343e-03
4.523041176624209569e-02
3.166128823636948919e-02
0.000000000000000000e+00
4.523041176624276183e-03
6.784561764936325456e-02
3.618432941299376537e-02
4.523041176624276183e-03
3.618432941299376537e-02
2.261520588312115887e-02
-3.618432941299370986e-02
7.236865882598753075e-02
2.623363882442045769e-01
3.392280882468162728e-01
3.527972117766888793e-01
3.799354588364342034e-01
5.246727764884091538e-01
5.879953529611481322e-01
5.427649411949060365e-01
3.437511294234404380e-01
2.487672647143318594e-01
1.628294823584718332e-01
1.809216470649688269e-02
-8.593778235586008174e-02
1.040299470623569089e-01
2.713824705974532403e-02
-4.975345294286637188e-02
-7.236865882598741972e-02
-9.046082353248430241e-02
-1.311681941221022329e-01
-9.046082353248430241e-02
0.000000000000000000e+00
-4.070737058961793053e-02
-2.713824705974532403e-02
0.000000000000000000e+00
-1.356912352987266202e-02
-2.216290176545865909e-01
-9.000851941482189700e-01
-1.099099005919684569e+00
-1.081006841213187464e+00
-2.035368529480897082e-01
1.736847811823698517e+00
5.436695494302307807e+00
6.761946559053202854e+00
2.804285529507013486e+00
3.618432941299372096e-01
-7.553478764962440195e-01
-1.076483800036563299e+00
-6.422718470806385582e-01
-2.939976764805740106e-01
-2.578133470675803007e-01
-2.894746353039497899e-01
-3.437511294234403825e-01
-2.804285529507014041e-01
-3.166128823636951140e-01
-3.347050470701919966e-01
-3.301820058935677760e-01
-2.578133470675803007e-01
-3.166128823636951140e-01
-2.713824705974529627e-01
-2.171059764779623702e-01
-2.849515941273255693e-01
-2.804285529507013486e-01
-2.306751000078349767e-01
-2.894746353039498454e-01
-3.120898411870708933e-01
-3.437511294234403825e-01
-3.256589647169435553e-01
-4.025506647195551957e-01
-3.392280882468161618e-01
-3.708893764831857065e-01
-4.206428294260520784e-01
-4.251658706026762991e-01
-4.161197882494278577e-01
-3.935045823663067543e-01
-3.392280882468161618e-01
-2.668594294208287421e-01
-2.442442235377076665e-01
-1.356912352987264814e-01
-4.975345294286637188e-02
-5.427649411949059255e-02
3.166128823636951695e-02
1.628294823584717776e-01
1.809216470649686326e-01
2.261520588312107838e-01
2.849515941273256248e-01
3.437511294234404380e-01
2.804285529507013486e-01
2.216290176545865909e-01
2.442442235377076387e-01
2.216290176545865909e-01
2.261520588312107560e-01
2.804285529507013486e-01
1.990138117714654875e-01
2.125829353013381495e-01
2.532903058909560801e-01
2.171059764779623702e-01
1.990138117714654875e-01
2.261520588312107560e-01
1.990138117714654875e-01
1.628294823584717776e-01
1.944907705948412668e-01
-2.171059764779623702e-01
2.080598941247139289e-01
1.175990705922296264e-01
1.809216470649686048e-01
9.046082353248430241e-02
9.046082353248430241e-02
1.447373176519748950e-01
8.141474117923588882e-02
6.332257647273900614e-02
1.402142764753506743e-01
6.332257647273900614e-02
5.427649411949059255e-02
5.427649411949059255e-02
4.975345294286637188e-02
4.523041176624215121e-02
7.689170000261166815e-02
8.593778235586008174e-02
1.356912352987263426e-02
-9.046082353248441343e-03
6.784561764936322681e-02
7.236865882598744748e-02
1.809216470649685493e-02
4.523041176624215121e-02
4.523041176624220672e-03
0.000000000000000000e+00
3.166128823636948919e-02
1.809216470649685493e-02
-3.618432941299372374e-02
-4.070737058961794441e-02
-4.975345294286637188e-02
0.000000000000000000e+00
6.784561764936324069e-02
-2.261520588312108948e-02
-2.261520588312107560e-02
4.975345294286637188e-02
4.975345294286637188e-02
9.046082353248441343e-03
0.000000000000000000e+00
0.000000000000000000e+00
-9.046082353248427466e-03
0.000000000000000000e+00
2.713824705974529627e-02
-9.046082353248427466e-03
-1.809216470649686187e-02
9.046082353248427466e-03
-4.975345294286637882e-02
-4.975345294286637188e-02
-3.618432941299372374e-02
2.713824705974529627e-02
-1.809216470649686187e-02
-3.166128823636951001e-02
4.523041176624213733e-03
-9.046082353248431629e-02
-4.523041176624215814e-02
2.713824705974529627e-02
0.000000000000000000e+00
-2.713824705974529627e-02
-7.689170000261166815e-02
-4.523041176624215814e-02
-4.523041176624215814e-02
-2.261520588312108254e-02
-1.356912352987264814e-02
-4.975345294286637188e-02
-6.784561764936324069e-02
4.523041176624216508e-02
1.447373176519748950e-01
2.623363882442045214e-01
2.894746353039497899e-01
3.392280882468161618e-01
4.251658706026762435e-01
5.472879823715300907e-01
5.065806117819121601e-01
3.754124176598099272e-01
3.030437588338224519e-01
1.583064411818475570e-01
2.713824705974529627e-02
-3.618432941299372374e-02
3.618432941299372374e-02
-2.261520588312107560e-02
0.000000000000000000e+00
-2.713824705974529627e-02
-6.784561764936322681e-02
-6.784561764936322681e-02
-9.950690588573274376e-02
-3.618432941299373762e-02
-4.523041176624215121e-02
9.046082353248441343e-03
-2.713824705974529627e-02
-1.809216470649685493e-02
-3.301820058935677205e-01
-1.026730347093697038e+00
-1.298112817691149834e+00
-1.166944623569047712e+00
4.070737058961793053e-02
2.171059764779623258e+00
6.078967341382946366e+00
6.440810635512883131e+00
2.238905382428986623e+00
1.944907705948412668e-01
-8.367626176754798806e-01
-9.860229765040791072e-01
-4.794423647221668361e-01
-2.849515941273255693e-01
-2.759055117740771834e-01
-3.573202529533130445e-01
-3.527972117766888793e-01
-2.894746353039497899e-01
-3.347050470701919966e-01
-3.211359235403192791e-01
-3.347050470701919966e-01
-3.663663353065614858e-01
-3.527972117766888793e-01
-3.211359235403192791e-01
-3.573202529533130445e-01
-3.166128823636950584e-01
-3.030437588338224519e-01
-3.075668000104466171e-01
-3.527972117766888238e-01
-3.482741706000645476e-01
-3.708893764831857065e-01
-4.342119529559247404e-01
-4.568271588390457882e-01
-4.387349941325490166e-01
-4.794423647221669471e-01
-5.518110235481543668e-01
-5.518110235481543668e-01
-5.472879823715300907e-01
-4.975345294286637188e-01
-4.703962823689185058e-01
-4.251658706026762991e-01
-3.527972117766888793e-01
-2.261520588312107838e-01
-1.447373176519749227e-01
-1.130760294156053780e-01
-6.784561764936322681e-02
9.046082353248441343e-03
3.166128823636951695e-02
6.332257647273903389e-02
1.130760294156054058e-01
1.266451529454780400e-01
1.537834000052233363e-01
1.673525235350959983e-01
9.046082353248433017e-02
1.402142764753506743e-01
1.628294823584717776e-01
6.332257647273900614e-02
1.221221117688538194e-01
1.447373176519748950e-01
1.085529882389811712e-01
0.000000000000000000e+00
8.593778235586008174e-02
1.356912352987264536e-01
8.593778235586008174e-02
2.261520588312107560e-02
2.261520588312107560e-02
9.046082353248413588e-03
-4.523041176624220672e-03
4.070737058961793053e-02
1.356912352987266202e-02
-5.879953529611481322e-02
-2.713824705974529627e-02
-1.809216470649685493e-02
0.000000000000000000e+00
-9.046082353248413588e-03
-4.523041176624220672e-03
-6.332257647273903389e-02
-4.523041176624220672e-03
-4.070737058961793053e-02
-1.809216470649685493e-02
-4.975345294286637188e-02
4.523041176624220672e-03
2.713824705974529627e-02
-4.070737058961793053e-02
-7.236865882598747524e-02
-2.939976764805740661e-01
1.809216470649685493e-02
-7.236865882598747524e-02
-7.689170000261169591e-02
-7.236865882598747524e-02
-4.975345294286637188e-02
-4.523041176624220672e-03
-4.975345294286637188e-02
-7.236865882598747524e-02
0.000000000000000000e+00
-4.975345294286637188e-02
-2.261520588312107560e-02
4.523041176624220672e-03
-4.070737058961795829e-02
-1.356912352987266202e-02
5.879953529611481322e-02
2.713824705974529627e-02
-4.975345294286637188e-02
1.356912352987263426e-02
-2.261520588312107560e-02
-4.523041176624220672e-03
-9.046082353248441343e-03
0.000000000000000000e+00
0.000000000000000000e+00
1.356912352987263426e-02
1.356912352987263426e-02
0.000000000000000000e+00
-4.523041176624220672e-03
9.046082353248413588e-03
-2.261520588312107560e-02
4.523041176624220672e-03
2.261520588312107560e-02
-9.046082353248441343e-03
1.356912352987263426e-02
4.975345294286637188e-02
1.356912352987263426e-02
-5.427649411949059255e-02
-1.809216470649685493e-02
4.523041176624215121e-02
4.523041176624220672e-03
1.356912352987263426e-02
9.950690588573274376e-02
-1.809216470649685493e-02
4.523041176624220672e-03
1.085529882389811712e-01
1.492603588285991156e-01
2.442442235377076387e-01
2.939976764805740106e-01
3.663663353065614858e-01
3.844585000130583685e-01
4.658732411922942296e-01
6.422718470806385582e-01
1.266451529454780400e-01
3.844585000130583685e-01
3.075668000104466726e-01
1.311681941221022607e-01
7.689170000261166815e-02
1.809216470649686326e-01
1.266451529454780400e-01
-8.141474117923586107e-02
-4.070737058961793053e-02
-1.809216470649685493e-02
-1.402142764753506743e-01
-1.085529882389811851e-01
-5.427649411949059255e-02
-8.141474117923586107e-02
-3.166128823636951695e-02
2.261520588312107560e-02
1.356912352987263426e-02
-1.809216470649688269e-02
-5.065806117819121601e-01
-1.162421582392423547e+00
-1.031253388270321203e+00
-2.351981411844592251e-01
1.325251064750895269e+00
4.703962823689184169e+00
7.680123917907918596e+00
4.667778494276190848e+00
1.809216470649686270e+00
2.939976764805740106e-01
-6.332257647273902279e-01
-1.117191170626181229e+00
-7.870091647326136197e-01
-3.618432941299373207e-01
-3.392280882468161618e-01
-3.889815411896825337e-01
-3.347050470701919966e-01
-3.437511294234404380e-01
-2.804285529507014596e-01
-2.532903058909561356e-01
-3.437511294234404380e-01
-4.115967470728036925e-01
-3.120898411870709488e-01
-3.211359235403193901e-01
-4.161197882494278577e-01
-4.070737058961794164e-01
-4.115967470728036925e-01
-3.618432941299373207e-01
-4.115967470728036925e-01
-4.387349941325490166e-01
-5.201497353117848776e-01
-5.518110235481543668e-01
-5.337188588416574841e-01
-5.563340647247785320e-01
-6.196566411975176214e-01
-5.970414353143964625e-01
-6.422718470806386692e-01
-6.332257647273902279e-01
-5.563340647247785320e-01
-5.834723117845238560e-01
-5.699031882546512495e-01
-4.115967470728036925e-01
-3.120898411870709488e-01
-2.668594294208287421e-01
-1.266451529454780400e-01
0.000000000000000000e+00
1.085529882389811712e-01
-1.085529882389811712e-01
3.166128823636951695e-02
1.311681941221022607e-01
7.236865882598744748e-02
9.498386470910855084e-02
1.266451529454780400e-01
4.975345294286637188e-02
1.266451529454780400e-01
1.899677294182170739e-01
1.447373176519748672e-01
4.975345294286639963e-02
1.040299470623569644e-01
4.975345294286639963e-02
7.689170000261169591e-02
1.175990705922296264e-01
1.175990705922296264e-01
9.498386470910852308e-02
4.975345294286639963e-02
5.879953529611481322e-02
4.070737058961795829e-02
4.975345294286639963e-02
7.689170000261169591e-02
1.356912352987266202e-02
-8.141474117923587495e-02
4.070737058961795829e-02
3.166128823636951695e-02
1.809216470649688269e-02
4.523041176624220672e-03
-3.618432941299370986e-02
-1.356912352987263426e-02
-3.166128823636948919e-02
-4.070737058961793053e-02
0.000000000000000000e+00
4.975345294286639963e-02
4.523041176624217896e-02
-3.618432941299370986e-02
-2.713824705974526852e-02
-1.809216470649685493e-02
-2.442442235377076387e-01
4.523041176624220672e-03
1.809216470649688269e-02
-4.523041176624192916e-03
2.261520588312110336e-02
4.975345294286639963e-02
3.618432941299373762e-02
1.809216470649688269e-02
4.975345294286639963e-02
-1.356912352987263426e-02
-3.166128823636948919e-02
-4.975345294286637188e-02
-5.427649411949059255e-02
-2.713824705974529627e-02
-5.427649411949059255e-02
-2.261520588312107560e-02
-7.236865882598744748e-02
-4.070737058961793053e-02
6.332257647273903389e-02
1.085529882389811573e-01
1.854446882415928533e-01
2.351981411844591974e-01
1.990138117714654875e-01
2.849515941273255693e-01
4.251658706026762991e-01
4.206428294260520229e-01
3.030437588338223964e-01
3.663663353065614858e-01
2.261520588312107838e-01
4.523041176624216508e-02
-2.261520588312107560e-02
1.356912352987264814e-02
9.046082353248427466e-03
0.000000000000000000e+00
-6.784561764936324069e-02
-8.593778235586009562e-02
-1.402142764753506743e-01
-1.356912352987264814e-01
-1.175990705922296126e-01
-1.356912352987264814e-01
-9.046082353248430935e-03
-2.261520588312107560e-02
-4.523041176624215814e-02
0.000000000000000000e+00
-4.613502000156700089e-01
-1.121714211802805394e+00
-1.185036788275544373e+00
-6.829792176702564888e-01
1.026730347093697038e+00
3.713416806008481341e+00
7.752492576733906127e+00
6.124197753149188017e+00
2.008230282421151980e+00
4.206428294260520784e-01
-5.699031882546511385e-01
-1.216698076511913973e+00
-9.227004000313399068e-01
-5.291958176650332080e-01
-4.523041176624215676e-01
-4.523041176624215676e-01
-4.794423647221668916e-01
-4.975345294286637743e-01
-4.613502000156700089e-01
-4.025506647195551957e-01
-4.432580353091731262e-01
-4.161197882494278577e-01
-4.432580353091731262e-01
-4.115967470728036370e-01
-4.839654058987911123e-01
-4.930114882520394981e-01
-4.749193235455426709e-01
-4.930114882520394981e-01
-4.930114882520394981e-01
-5.337188588416573731e-01
-6.060875176676449039e-01
-6.377488059040143931e-01
-6.377488059040143931e-01
-6.875022588468807649e-01
-7.327326706131228606e-01
-6.648870529637597171e-01
-7.598709176728681847e-01
-7.598709176728681847e-01
-7.010713823767533714e-01
-6.648870529637597171e-01
-6.060875176676449039e-01
-4.975345294286637743e-01
-3.980276235429309750e-01
-3.482741706000646031e-01
-1.944907705948412946e-01
-9.046082353248432670e-03
0.000000000000000000e+00
8.141474117923588882e-02
1.718755647117202190e-01
2.035368529480897082e-01
2.171059764779623702e-01
1.899677294182170462e-01
1.583064411818475570e-01
1.402142764753507020e-01
1.899677294182170462e-01
1.628294823584717776e-01
2.035368529480897082e-01
2.125829353013381495e-01
2.261520588312108115e-01
1.492603588285991156e-01
1.492603588285991156e-01
2.080598941247139289e-01
1.492603588285991156e-01
1.356912352987264814e-01
1.899677294182170462e-01
1.175990705922296264e-01
1.221221117688538194e-01
1.628294823584717776e-01
1.085529882389811851e-01
2.713824705974529627e-02
2.261520588312108948e-02
4.070737058961795829e-02
1.356912352987264814e-02
-2.713824705974528934e-02
-4.523041176624206794e-03
-1.356912352987263426e-02
-5.879953529611479934e-02
0.000000000000000000e+00
-4.523041176624206794e-03
2.713824705974529627e-02
4.523041176624215121e-02
1.356912352987264814e-02
-9.046082353248427466e-03
5.427649411949059255e-02
-9.046082353248427466e-03
-4.523041176624215121e-02
0.000000000000000000e+00
2.261520588312108948e-02
-4.523041176624206794e-03
-4.523041176624206794e-03
2.261520588312108948e-02
1.809216470649686881e-02
9.046082353248441343e-03
7.236865882598744748e-02
4.523041176624220672e-03
1.809216470649685493e-02
7.689170000261165427e-02
0.000000000000000000e+00
0.000000000000000000e+00
2.713824705974529627e-02
-9.046082353248427466e-03
9.046082353248427466e-03
-4.523041176624220672e-03
4.523041176624206794e-03
-1.356912352987264814e-02
-1.356912352987264814e-02
0.000000000000000000e+00
-4.975345294286637188e-02
-3.166128823636951001e-02
0.000000000000000000e+00
-3.166128823636951001e-02
-1.356912352987264814e-02
4.070737058961794441e-02
-2.713824705974529627e-02
-5.879953529611480628e-02
-3.166128823636951001e-02
-4.523041176624215814e-02
-7.236865882598744748e-02
0.000000000000000000e+00
0.000000000000000000e+00
1.356912352987264814e-02
2.894746353039498454e-01
3.075668000104466726e-01
2.804285529507013486e-01
3.120898411870708378e-01
4.477810764857973469e-01
5.156266941351606015e-01
4.523041176624215676e-01
3.301820058935677205e-01
2.939976764805740106e-01
1.221221117688538194e-01
6.332257647273903389e-02
0.000000000000000000e+00
-4.523041176624215121e-02
0.000000000000000000e+00
9.046082353248427466e-03
-4.070737058961794441e-02
-6.784561764936324069e-02
-4.070737058961794441e-02
-1.175990705922296126e-01
-9.498386470910852308e-02
-5.427649411949059255e-02
-9.950690588573274376e-02
-5.879953529611479934e-02
1.809216470649686881e-02
-1.944907705948412946e-01
-8.910391117949704176e-01
-1.257405447101531903e+00
-1.270974570631404621e+00
-5.201497353117848776e-01
1.393096682400258635e+00
4.853223182517783840e+00
6.983575576707789168e+00
3.197790111873320296e+00
5.925183941377722974e-01
-7.689170000261167370e-01
-1.081006841213187464e+00
-6.422718470806386692e-01
-4.161197882494278577e-01
-1.944907705948412946e-01
-2.578133470675803007e-01
-2.397211823610834458e-01
-3.573202529533130445e-01
-2.849515941273255693e-01
-2.351981411844592251e-01
-3.075668000104466726e-01
-2.261520588312107838e-01
-2.125829353013381495e-01
-2.125829353013381495e-01
-1.990138117714654875e-01
-1.537834000052233363e-01
-1.221221117688538194e-01
-1.809216470649686326e-01
-1.763986058883443842e-01
-1.809216470649686048e-01
-2.216290176545865354e-01
-2.532903058909560245e-01
-2.397211823610833625e-01
-2.080598941247139289e-01
-2.759055117740771834e-01
-2.532903058909560245e-01
-3.166128823636950584e-01
-3.573202529533130445e-01
-2.351981411844591974e-01
-2.216290176545865354e-01
-1.628294823584717221e-01
-9.950690588573274376e-02
-1.356912352987260650e-02
8.593778235586013725e-02
1.221221117688537916e-01
1.809216470649686048e-01
1.854446882415928255e-01
2.939976764805740106e-01
3.663663353065614303e-01
3.708893764831856510e-01
4.115967470728036370e-01
4.070737058961794164e-01
3.754124176598099272e-01
4.025506647195551957e-01
4.161197882494278577e-01
3.437511294234403825e-01
3.075668000104466726e-01
3.618432941299372652e-01
3.075668000104466726e-01
2.804285529507013486e-01
3.573202529533130445e-01
3.166128823636951140e-01
2.939976764805740661e-01
2.985207176571982313e-01
3.030437588338224519e-01
2.397211823610834458e-01
1.809216470649686326e-01
1.899677294182170739e-01
1.447373176519748950e-01
1.492603588285991156e-01
1.537834000052233363e-01
9.498386470910852308e-02
9.950690588573274376e-02
1.492603588285991156e-01
1.175990705922296264e-01
1.040299470623569644e-01
1.085529882389811851e-01
7.689170000261169591e-02
2.713824705974532403e-02
4.070737058961793053e-02
1.809216470649688269e-02
-3.166128823636948919e-02
-1.356912352987260650e-02
4.070737058961793053e-02
2.713824705974526852e-02
-2.261520588312104785e-02
9.046082353248441343e-03
9.046082353248385832e-03
4.523041176624220672e-03
0.000000000000000000e+00
0.000000000000000000e+00
0.000000000000000000e+00
0.000000000000000000e+00
-2.261520588312115887e-02
-9.046082353248441343e-03
9.046082353248441343e-03
-1.809216470649677166e-02
0.000000000000000000e+00
-1.356912352987260650e-02
4.523041176624165161e-03
4.975345294286637188e-02
-2.261520588312115887e-02
-5.427649411949053704e-02
0.000000000000000000e+00
0.000000000000000000e+00
4.975345294286637188e-02
-4.523041176624276183e-03
-3.166128823636960021e-02
-4.070737058961804156e-02
-8.141474117923597209e-02
-1.266451529454780678e-01
-1.040299470623570199e-01
-5.427649411949064806e-02
-1.311681941221023440e-01
-1.628294823584717221e-01
-1.311681941221022329e-01
-1.266451529454779568e-01
-7.689170000261158489e-02
-8.593778235586013725e-02
-9.046082353248441343e-03
1.040299470623570199e-01
2.487672647143318594e-01
2.759055117740771279e-01
2.487672647143318594e-01
4.025506647195552512e-01
4.884884470754153329e-01
3.573202529533130445e-01
2.668594294208287421e-01
1.944907705948412113e-01
1.356912352987260650e-02
0.000000000000000000e+00
0.000000000000000000e+00
-2.261520588312115887e-02
2.261520588312115887e-02
-9.046082353248330321e-03
-3.166128823636937817e-02
-7.689170000261169591e-02
-7.689170000261169591e-02
-7.236865882598753075e-02
-9.046082353248441343e-02
-9.046082353248441343e-02
-4.523041176624165161e-03
-4.070737058961793053e-02
-4.975345294286626086e-02
-3.392280882468161618e-01
-1.040299470623569533e+00
-1.316204982397646717e+00
-1.216698076511914195e+00
-9.498386470910857859e-02
2.030845488304272806e+00
5.807584870785492903e+00
5.902568735494601704e+00
2.293181876548477494e+00
1.763986058883444397e-01
-9.407925647378370115e-01
-1.230267200041786690e+00
-7.372557117897471368e-01
-4.206428294260520229e-01
-4.342119529559247404e-01
-4.568271588390457882e-01
-4.523041176624216231e-01
-4.251658706026761880e-01
-5.065806117819120491e-01
-4.658732411922941186e-01
-4.568271588390457882e-01
-4.930114882520395536e-01
-5.111036529585362143e-01
-4.975345294286637188e-01
-5.789492706078995798e-01
-4.975345294286637188e-01
-4.839654058987910012e-01
-5.744262294312754147e-01
-5.472879823715299796e-01
-6.015644764910206277e-01
-6.739331353170081584e-01
-6.558409706105112758e-01
-6.015644764910206277e-01
-6.648870529637596061e-01
-8.005782882624861152e-01
-7.824861235559892325e-01
-8.231934941456071630e-01
-7.553478764962440195e-01
-7.689170000261165150e-01
-6.060875176676447929e-01
-5.789492706078995798e-01
-5.337188588416574841e-01
-4.115967470728034705e-01
-3.392280882468161618e-01
-2.351981411844592529e-01
-1.356912352987265091e-01
-7.689170000261169591e-02
-6.332257647273897838e-02
0.000000000000000000e+00
0.000000000000000000e+00
0.000000000000000000e+00
4.523041176624209569e-02
-2.713824705974521301e-02
-1.809216470649688269e-02
2.713824705974521301e-02
3.618432941299376537e-02
-2.261520588312104785e-02
0.000000000000000000e+00
2.713824705974521301e-02
2.261520588312104785e-02
1.356912352987260650e-02
9.046082353248441343e-03
-5.879953529611470220e-02
-9.046082353248441343e-03
2.713824705974532403e-02
-1.356912352987260650e-02
-2.261520588312104785e-02
0.000000000000000000e+00
6.784561764936325456e-02
2.713824705974521301e-02
1.809216470649688269e-02
-3.166128823636948919e-02
-5.879953529611481322e-02
-5.879953529611481322e-02
7.236865882598741972e-02
-1.809216470649677166e-02
4.523041176624276183e-03
4.523041176624209569e-02
-1.356912352987271753e-02
-9.046082353248430241e-02
0.000000000000000000e+00
1.809216470649688269e-02
4.523041176624165161e-03
0.000000000000000000e+00
5.879953529611481322e-02
0.000000000000000000e+00
-4.523041176624220672e-02
-3.618432941299365435e-02
1.356912352987271753e-02
-1.356912352987271753e-02
3.166128823636948919e-02
-3.166128823636948919e-02
4.523041176624276183e-03
4.070737058961793053e-02
3.166128823636948919e-02
-7.689170000261169591e-02
0.000000000000000000e+00
9.046082353248441343e-03
-9.046082353248441343e-03
0.000000000000000000e+00
3.166128823636948919e-02
0.000000000000000000e+00
-3.166128823636948919e-02
0.000000000000000000e+00
1.809216470649685493e-02
9.046082353248430241e-02
1.221221117688538194e-01
2.216290176545865909e-01
3.211359235403193346e-01
4.115967470728036370e-01
3.980276235429309750e-01
2.985207176571982313e-01
2.351981411844592251e-01
1.130760294156054058e-01
-8.141474117923587495e-02
-7.689170000261165427e-02
0.000000000000000000e+00
4.523041176624220672e-03
0.000000000000000000e+00
-4.523041176624220672e-03
-4.975345294286637188e-02
-9.046082353248431629e-02
-4.070737058961794441e-02
9.046082353248427466e-03
4.070737058961793747e-02
1.221221117688538194e-01
1.221221117688538194e-01
6.784561764936324069e-02
-8.141474117923587495e-02
-6.648870529637596061e-01
-1.085529882389811629e+00
-8.639008647352250936e-01
3.844585000130583130e-01
2.388165741257585850e+00
6.142289917855684678e+00
7.888183812032631970e+00
3.722462888361729227e+00
1.307158900044398386e+00
2.894746353039497899e-01
-7.191635470832502541e-01
-8.186704529689829979e-01
-3.166128823636951140e-01
0.000000000000000000e+00
-1.809216470649685493e-02
-4.523041176624215121e-02
9.046082353248427466e-03
0.000000000000000000e+00
-4.523041176624220672e-03
9.498386470910852308e-02
9.046082353248431629e-02
4.070737058961794441e-02
5.879953529611480628e-02
0.000000000000000000e+00
-1.356912352987264814e-02
1.356912352987264814e-02
2.713824705974529627e-02
-1.356912352987264814e-02
-2.713824705974529627e-02
-8.593778235586009562e-02
-1.583064411818475570e-01
-1.266451529454780123e-01
-1.447373176519748950e-01
-1.990138117714654875e-01
-2.261520588312107838e-01
-2.035368529480897082e-01
-2.261520588312107838e-01
-2.894746353039497899e-01
-2.351981411844591974e-01
-1.990138117714654875e-01
-1.085529882389811851e-01
0.000000000000000000e+00
0.000000000000000000e+00
0.000000000000000000e+00
0.000000000000000000e+00
0.000000000000000000e+00
0.000000000000000000e+00
0.000000000000000000e+00
2.713824705974532403e-02
9.046082353248330321e-03
1.809216470649688269e-02
4.523041176624231774e-02
4.523041176624165161e-03
4.523041176624165161e-03
-1.356912352987271753e-02
0.000000000000000000e+00
-4.523041176624220672e-02
4.523041176624209569e-02
7.236865882598753075e-02
1.809216470649688269e-02
4.523041176624165161e-03
8.141474117923586107e-02
5.427649411949064806e-02
1.356912352987271753e-02
2.261520588312104785e-02
9.046082353248330321e-03
1.809216470649688269e-02
1.356912352987271753e-02
-5.427649411949064806e-02
-7.689170000261169591e-02
-4.523041176624165161e-03
-2.261520588312104785e-02
-4.523041176624165161e-03
5.427649411949064806e-02
1.356912352987271753e-02
0.000000000000000000e+00
2.261520588312104785e-02
2.261520588312104785e-02
5.427649411949064806e-02
1.356912352987271753e-02
8.141474117923586107e-02
7.236865882598753075e-02
6.784561764936314354e-02
6.784561764936314354e-02
0.000000000000000000e+00
-1.809216470649688269e-02
5.879953529611481322e-02
7.236865882598753075e-02
7.236865882598753075e-02
2.261520588312104785e-02
5.427649411949064806e-02
9.046082353248330321e-03
3.166128823636960021e-02
9.498386470910857859e-02
4.523041176624165161e-03
5.879953529611481322e-02
1.628294823584717221e-01
2.171059764779623702e-01
2.261520588312107005e-01
2.759055117740771834e-01
3.030437588338223964e-01
3.618432941299372096e-01
3.527972117766888793e-01
2.849515941273255137e-01
1.944907705948413223e-01
9.046082353248330321e-03
0.000000000000000000e+00
0.000000000000000000e+00
0.000000000000000000e+00
0.000000000000000000e+00
-6.332257647273908940e-02
-1.266451529454780678e-01
-1.492603588285991156e-01
-1.447373176519749505e-01
-1.492603588285991156e-01
-1.040299470623569089e-01
-4.975345294286637188e-02
-2.713824705974532403e-02
3.618432941299376537e-02
3.618432941299376537e-02
-1.266451529454780678e-01
-6.965483412001292063e-01
-1.175990705922296042e+00
-1.175990705922296042e+00
-3.347050470701919411e-01
1.515218794169112204e+00
5.527156317834791999e+00
8.987282817952316094e+00
4.835131017811286291e+00
1.773032141236692283e+00
1.628294823584717221e-01
-7.372557117897471368e-01
-9.407925647378369005e-01
-5.789492706078995798e-01
-2.351981411844592251e-01
-2.080598941247139289e-01
-3.166128823636951140e-01
-3.482741706000646031e-01
-2.487672647143318871e-01
-3.256589647169435553e-01
-3.120898411870708933e-01
-3.075668000104466726e-01
-3.256589647169435553e-01
-3.166128823636951140e-01
-3.618432941299372652e-01
-2.985207176571982313e-01
-3.166128823636951140e-01
-3.301820058935677760e-01
-3.437511294234403825e-01
-4.161197882494278577e-01
-4.296889117793004642e-01
-3.392280882468161618e-01
-4.296889117793004642e-01
-4.568271588390457882e-01
-4.568271588390457882e-01
-5.201497353117847666e-01
-5.744262294312754147e-01
-5.518110235481543668e-01
-5.563340647247785320e-01
-5.156266941351606015e-01
-4.161197882494278577e-01
-3.347050470701919966e-01
-2.532903058909560801e-01
-1.763986058883444119e-01
-1.356912352987263426e-02
6.784561764936325456e-02
2.306751000078350322e-01
3.301820058935677205e-01
3.799354588364340923e-01
3.935045823663068099e-01
4.387349941325489056e-01
4.432580353091731817e-01
4.477810764857973469e-01
5.020575706052878839e-01
4.025506647195551402e-01
4.206428294260520784e-01
4.523041176624215676e-01
4.568271588390457882e-01
4.342119529559247404e-01
4.161197882494278577e-01
4.251658706026762991e-01
3.980276235429309750e-01
3.663663353065614858e-01
4.070737058961794164e-01
3.935045823663067543e-01
3.301820058935677205e-01
3.075668000104466726e-01
3.030437588338224519e-01
2.939976764805740106e-01
2.216290176545865354e-01
1.763986058883444119e-01
1.266451529454780400e-01
9.046082353248430241e-02
1.537834000052233363e-01
9.046082353248430241e-02
0.000000000000000000e+00
8.593778235586008174e-02
3.166128823636951001e-02
4.523041176624215814e-02
9.046082353248430241e-02
5.879953529611480628e-02
2.261520588312108254e-02
2.261520588312108254e-02
3.618432941299371680e-02
-1.809216470649686534e-02
0.000000000000000000e+00
-4.523041176624215814e-02
0.000000000000000000e+00
-3.618432941299373068e-02
2.261520588312108254e-02
-4.975345294286637882e-02
9.046082353248427466e-03
9.046082353248434405e-03
-4.070737058961794441e-02
0.000000000000000000e+00
9.046082353248434405e-03
-2.713824705974529627e-02
-9.046082353248431629e-02
-4.975345294286637188e-02
-8.141474117923588882e-02
-8.593778235586009562e-02
-3.618432941299372374e-02
1.809216470649686534e-02
0.000000000000000000e+00
-4.070737058961794441e-02
-3.618432941299372374e-02
-9.950690588573274376e-02
-3.618432941299372374e-02
9.950690588573274376e-02
2.216290176545865631e-01
2.804285529507013486e-01
3.754124176598099272e-01
5.020575706052878839e-01
5.337188588416574841e-01
4.930114882520394981e-01
3.799354588364341478e-01
2.623363882442045214e-01
1.085529882389811851e-01
8.593778235586010950e-02
-4.523041176624216508e-02
-9.046082353248431629e-02
-8.141474117923587495e-02
-8.593778235586009562e-02
-1.356912352987264536e-01
-1.040299470623569505e-01
-5.879953529611479934e-02
-7.236865882598743360e-02
-4.975345294286635800e-02
0.000000000000000000e+00
-4.523041176624215121e-02
1.356912352987264814e-02
4.523041176624220672e-03
-2.306751000078349767e-01
-9.769768941508306659e-01
-1.225744158865162525e+00
-1.144329417685926664e+00
-1.311681941221022329e-01
2.071552858893890736e+00
6.816223053172692836e+00
7.182589388479255099e+00
3.053052794221345678e+00
5.111036529585363253e-01
-8.051013294391103914e-01
-8.412856588521041568e-01
-3.211359235403192791e-01
-3.618432941299372374e-02
-6.784561764936324069e-02
-1.130760294156053919e-01
-1.311681941221022329e-01
-1.130760294156053919e-01
-5.427649411949057867e-02
-5.427649411949057867e-02
-9.950690588573272988e-02
-3.166128823636950307e-02
-9.046082353248427466e-03
1.356912352987264814e-02
9.046082353248441343e-03
1.809216470649686881e-02
-3.166128823636950307e-02
-1.356912352987264814e-02
-3.166128823636950307e-02
-5.879953529611479934e-02
-4.523041176624215121e-02
-8.141474117923587495e-02
-2.125829353013380940e-01
-2.306751000078349767e-01
-1.537834000052233363e-01
-1.854446882415928255e-01
-2.261520588312107560e-01
-2.623363882442045214e-01
-2.216290176545865354e-01
-1.809216470649686048e-01
-1.085529882389811712e-01
-1.809216470649685493e-02
0.000000000000000000e+00
0.000000000000000000e+00
0.000000000000000000e+00
4.523041176624217896e-02
1.040299470623569644e-01
2.125829353013381495e-01
1.628294823584717776e-01
1.854446882415928810e-01
2.713824705974529627e-01
2.713824705974529627e-01
2.668594294208287421e-01
2.487672647143318594e-01
1.809216470649686603e-01
1.854446882415928810e-01
1.537834000052233363e-01
2.261520588312108115e-01
2.080598941247139289e-01
2.261520588312108115e-01
2.306751000078350322e-01
1.718755647117202190e-01
1.266451529454780678e-01
2.261520588312108115e-01
1.583064411818475570e-01
1.492603588285991156e-01
2.351981411844592529e-01
5.427649411949059255e-02
4.523041176624217896e-02
1.130760294156054058e-01
1.040299470623569644e-01
4.070737058961795829e-02
3.618432941299373762e-02
8.141474117923591658e-02
-1.809216470649685493e-02
2.713824705974529627e-02
4.070737058961795829e-02
5.427649411949059255e-02
0.000000000000000000e+00
0.000000000000000000e+00
3.618432941299373762e-02
4.070737058961795829e-02
4.523041176624217896e-02
4.070737058961795829e-02
-5.427649411949059255e-02
-3.618432941299370986e-02
4.070737058961795829e-02
2.713824705974529627e-02
3.618432941299373762e-02
0.000000000000000000e+00
-9.046082353248430241e-02
-7.236865882598744748e-02
-4.523041176624215121e-02
-9.498386470910852308e-02
-6.784561764936322681e-02
-3.618432941299370986e-02
-2.713824705974529627e-02
-3.166128823636948919e-02
4.523041176624220672e-03
-1.809216470649685493e-02
-4.523041176624215121e-02
4.070737058961795829e-02
2.713824705974529627e-02
-7.236865882598744748e-02
-2.713824705974529627e-02
5.427649411949059255e-02
-3.618432941299373762e-02
5.879953529611481322e-02
1.763986058883444119e-01
1.763986058883444119e-01
2.351981411844592251e-01
3.799354588364340923e-01
5.382419000182816493e-01
5.925183941377721863e-01
5.382419000182817603e-01
4.025506647195551402e-01
3.120898411870709488e-01
2.125829353013381495e-01
4.975345294286637188e-02
0.000000000000000000e+00
-3.166128823636950307e-02
-4.523041176624215121e-02
-5.879953529611479934e-02
-4.975345294286637188e-02
-4.070737058961793747e-02
-1.175990705922295987e-01
-6.332257647273902001e-02
-4.523041176624217202e-03
-1.809216470649686187e-02
-8.141474117923588882e-02
4.523041176624215121e-02
-5.427649411949059255e-02
-5.427649411949059255e-01
-1.153375500039174995e+00
-1.316204982397646717e+00
-8.774699882650979221e-01
6.287027235507659517e-01
3.369665676585040792e+00
7.811292112030020718e+00
4.921068800167146762e+00
1.569495288288602852e+00
-9.046082353248430935e-03
-9.995921000339517137e-01
-1.040299470623569533e+00
-6.287027235507660627e-01
-4.387349941325489056e-01
-4.206428294260520229e-01
-3.844585000130583130e-01
-5.020575706052879950e-01
-4.839654058987910568e-01
-3.844585000130583130e-01
-3.708893764831856510e-01
-3.708893764831856510e-01
-3.935045823663067543e-01
-4.387349941325489056e-01
-3.980276235429309750e-01
-3.256589647169434998e-01
-3.347050470701919411e-01
-4.477810764857973469e-01
-4.477810764857973469e-01
-3.799354588364340923e-01
-4.161197882494278022e-01
-4.523041176624215676e-01
-5.156266941351606015e-01
-5.111036529585363253e-01
-5.427649411949059255e-01
-5.518110235481543668e-01
-6.377488059040143931e-01
-6.603640117871355519e-01
-6.558409706105112758e-01
-5.563340647247785320e-01
-5.156266941351606015e-01
-3.799354588364340923e-01
-3.618432941299372096e-01
-2.442442235377076387e-01
-6.784561764936324069e-02
0.000000000000000000e+00
-1.402142764753506743e-01
0.000000000000000000e+00
0.000000000000000000e+00
9.046082353248430241e-02
1.447373176519748950e-01
1.944907705948412668e-01
9.950690588573274376e-02
9.950690588573274376e-02
1.221221117688537916e-01
2.216290176545865909e-01
1.628294823584717776e-01
1.854446882415928255e-01
1.537834000052233363e-01
6.784561764936325456e-02
9.950690588573274376e-02
1.718755647117201635e-01
1.175990705922296264e-01
6.784561764936325456e-02
9.950690588573274376e-02
9.046082353248430241e-02
1.130760294156054058e-01
9.498386470910852308e-02
4.975345294286637188e-02
6.784561764936325456e-02
4.523041176624215121e-02
6.784561764936325456e-02
-9.046082353248441343e-03
-1.356912352987266202e-02
-4.523041176624220672e-03
3.618432941299370986e-02
3.618432941299370986e-02
6.784561764936325456e-02
5.427649411949059255e-02
-1.809216470649688269e-02
4.070737058961793053e-02
2.261520588312104785e-02
-3.618432941299370986e-02
-7.689170000261166815e-02
-6.784561764936325456e-02
