1765
1772
1775
1773
1771
1775
1771
1776
1776
1776
1779
1776
1782
1783
1778
1769
1675
1780
1776
1775
1776
1776
1791
1755
1788
1783
1791
1789
1795
1831
1846
1872
1889
1892
1897
1903
1915
1909
1904
1907
1903
1898
1904
1898
1895
1906
1906
1891
1901
1897
1893
1891
1897
1874
1881
1879
1875
1875
1885
1894
1879
1883
1887
1889
1874
1887
1876
1884
1874
1879
1878
1889
1881
1872
1884
1878
1872
1877
1893
1875
1872
1888
1883
1873
1889
1879
1883
1885
1887
1881
1892
1891
1878
1872
1895
1878
1883
1882
1872
1877
1899
1877
1872
1887
1904
1910
1934
1935
1963
1982
1971
1968
1940
1905
1855
1840
1846
1822
1883
1826
1811
1808
1810
1818
1809
1803
1817
1771
1616
1530
1587
1819
2244
3151
3397
2578
2023
1725
1578
1618
1707
1748
1744
1727
1722
1732
1721
1719
1744
1746
1738
1757
1745
1712
1717
1733
1729
1729
1726
1687
1690
1700
1705
1687
1689
1709
1707
1731
1756
1778
1799
1809
1831
1866
1902
1889
1883
1897
1899
1916
1909
1902
1897
1915
1920
1917
1899
1915
1919
1892
1906
1902
1923
1905
1901
1875
1888
1904
1894
1903
1904
1882
1891
1899
1890
1888
1904
1895
1889
1909
1903
1895
1891
1917
1911
1906
1904
1917
1936
1962
1968
1967
2003
2019
2000
2018
1984
1959
1947
1919
1891
1895
1875
1856
1857
1872
1850
1859
1866
1871
1859
1872
1808
1648
1599
1735
2055
2509
3323
3402
2581
2126
1866
1648
1655
1745
1779
1781
1776
1776
1769
1779
1787
1779
1788
1794
1797
1786
1774
1755
1872
1755
1744
1744
1731
1719
1707
1702
1695
1697
1704
1698
1723
1750
1767
1807
1859
1891
1920
1953
1968
1982
1978
1984
1970
1970
1983
1984
1968
1987
1985
1983
1997
1991
1965
1967
1973
1965
1967
1965
1950
1941
1951
1941
1942
1942
1947
1953
1959
1958
1951
1937
1949
1943
1933
1955
1979
1984
2002
1984
2007
2064
2085
2051
2046
2043
1999
1969
1955
1921
1911
1913
1881
1903
1895
1872
1885
1906
1854
1891
1898
1851
1698
1629
1723
1997
2418
3312
3563
2736
2205
1899
1695
1650
1727
1769
1789
1799
1779
1774
1782
1782
1783
1787
1765
1770
1778
1774
1751
1744
1753
1744
1723
1712
1680
1680
1680
1682
1674
1681
1683
1705
1723
1753
1808
1850
1872
1904
1931
1948
1958
1959
1970
1962
1971
1987
1968
1969
1971
1964
1968
1972
1968
1971
1965
1949
1944
1940
1953
1947
1941
1939
1929
1930
1935
1936
1935
1936
1949
1933
1936
1936
1936
1936
1945
1940
1931
1935
1925
1919
1936
1958
1978
1984
1984
2015
2032
2034
2015
2000
1984
1937
1907
1907
1890
1875
1869
1858
1856
1853
1859
1854
1856
1859
1860
1855
1744
1616
1617
1821
2181
2790
3542
2883
2227
1895
1700
1595
1689
1776
1762
1753
1761
1763
1753
1763
1759
1755
1779
1779
1772
1776
1778
1769
1767
1763
1747
1737
1737
1729
1714
1716
1718
1721
1734
1742
1755
1769
1803
1825
1850
1883
1887
1905
1919
1919
1917
1911
1919
1908
1909
1905
1911
1905
1913
1916
1916
1911
1906
1902
1902
1840
1883
1877
1887
1876
1875
1883
1874
1881
1874
1869
1872
1881
1887
1881
1874
1872
1861
1882
1875
1869
1872
1875
1863
1867
1878
1870
1872
1887
1872
1867
1872
1866
1860
1868
1875
1872
1866
1877
1869
1863
1872
1872
1872
1878
1867
1859
1867
1863
1861
1855
1867
1863
1862
1872
1857
1859
1863
1852
1855
1847
1861
1890
1920
1933
1936
1977
1986
1958
1947
1925
1878
1831
1826
1806
1805
1806
1808
1818
1797
1793
1789
1779
1793
1797
1781
1657
1546
1550
1644
2043
2673
3329
2704
1914
1628
1554
1627
1733
1747
1734
1718
1723
1727
1726
1733
1741
1741
1744
1742
1741
1744
1742
1729
1722
1727
1721
1715
1715
1707
1695
1701
1710
1706
1719
1721
1733
1741
1772
1775
1783
1802
1803
1811
1822
1824
1814
1810
1798
1807
1809
1808
1808
1819
1831
1814
1808
1835
1808
1808
1809
1811
1798
1808
1797
1795
1808
1808
1804
1793
1805
1790
1792
1802
1797
1787
1799
1791
1794
1801
1799
1789
1803
1805
1790
1796
1803
1744
1819
1809
1799
1801
1808
1803
1804
1808
1819
1815
1819
1814
1813
1814
1815
1811
1830
1840
1833
1825
1842
1840
1753
1840
1850
1840
1851
1859
1851
1855
1866
1863
1871
1873
1871
1866
1883
1873
1873
1885
1886
1879
1882
1891
1884
1897
1897
1894
1901
1911
1907
1903
1909
1911
1909
1906
1918
1919
1918
1931
1923
1931
1933
1927
1927
1938
1938
1936
1945
1935
1929
1936
1950
1931
1929
1943
1966
1995
2027
2016
2006
2029
2019
1982
1982
1958
1936
1923
1933
1939
1935
1939
1935
1925
1941
1936
1923
1931
1937
1900
1747
1700
1706
1850
2327
3142
3480
2659
2019
1781
1758
1847
1906
1918
1908
1915
1907
1913
1904
1907
1927
1913
1921
1932
1923
1913
1920
1915
1911
1925
1919
1897
1901
1898
1889
1893
1891
1899
1904
1920
1935
1945
1961
1979
1991
2003
2017
2001
2013
2018
2005
2005
2006
2007
2000
2016
2002
1996
2002
2003
1999
2000
2002
1989
1990
1995
1990
1985
1998
2000
1986
1988
1979
1985
1975
1984
1976
1986
1987
1969
1975
1982
1978
1968
1985
1983
1981
1983
1984
1980
1984
1982
1974
1970
1981
1984
1983
1985
1975
1981
1986
1993
1984
1987
1987
1987
1984
2001
1990
1988
2003
2000
1993
1997
1989
1984
1985
1989
1999
2004
2002
1979
1989
2009
1985
1997
2002
1999
1984
1996
1998
1991
2000
1997
1991
1998
1994
1987
1995
2004
1994
1999
2001
2003
2000
2015
2000
1991
1991
2003
2007
2032
2069
2073
2071
2089
2065
2054
2039
2009
2000
1993
1974
1981
1988
1983
1962
1978
1979
1968
1971
1989
1965
1967
1900
1754
1715
1775
2039
2576
3662
3221
2439
2014
1787
1793
1882
1921
1904
1903
1909
1902
1900
1909
1906
1915
1919
1910
1904
1904
1906
1901
1886
1893
1873
1872
1873
1865
1856
1859
1853
1847
1858
1879
1888
1909
1931
1935
1953
1977
1981
1985
2000
2000
2003
2047
2001
1985
1996
1992
1983
1966
1986
1980
1978
1968
1984
1991
1975
1968
1968
1974
1971
1970
1969
1966
1962
1968
1969
1958
1959
1969
1964
1968
1969
1965
1968
1972
1973
1967
1967
1973
1971
1971
1987
1968
1965
1975
1968
1971
1951
1973
1979
1978
1970
1961
1962
1972
1966
1967
1969
1921
1958
1967
1958
1954
1967
1972
1964
1953
1962
1952
1969
1968
1961
1953
1966
1952
1943
1953
1953
1943
1954
1953
1943
1953
1943
1946
1947
1952
1945
1936
1951
1945
1949
1952
1957
1947
1952
1955
1955
1977
2010
2009
2001
2031
2058
2039
2013
1996
1975
1953
1926
1917
1913
1917
1904
1895
1904
1893
1894
1904
1894
1894
1883
1746
1650
1637
1776
2158
2867
3691
2814
2185
1871
1690
1737
1827
1845
1835
1814
1818
1810
1815
1824
1818
1822
1829
1819
1827
1832
1813
1814
1815
1804
1805
1808
1798
1792
1792
1790
1774
1790
1801
1807
1827
1856
1859
1873
1903
1913
1911
1935
1939
1932
1932
1940
1933
1927
1943
1927
1937
1936
1938
1935
1927
1920
1928
1931
1923
1917
1918
1921
1903
1900
1910
1903
1907
1911
1915
1906
1922
1906
1910
1920
1871
1900
1915
1918
1908
1904
1913
1903
1905
1914
1904
1899
1919
1915
1919
1918
1918
1916
1916
1924
1915
1907
1919
1906
1905
1911
1909
1911
1971
1909
1899
1905
1922
1889
1915
1887
1902
1900
1904
1899
1902
1904
1899
1895
1902
1905
1906
1921
1959
1961
1966
1982
1987
2005
1982
1968
1952
1912
1894
1871
1872
1872
1863
1856
1853
1841
1837
1847
1850
1849
1845
1782
1634
1603
1632
1888
2363
3227
3317
2385
1967
1743
1612
1701
1766
1776
1784
1772
1760
1754
1759
1773
1784
1786
1767
1775
1766
1761
1761
1763
1744
1731
1739
1731
1719
1717
1712
1704
1710
1713
1728
1740
1772
1791
1798
1837
1851
1870
1887
1897
1901
1906
1910
1894
1899
1903
1807
1895
1909
1904
1904
1914
1898
1889
1904
1883
1888
1888
1897
1877
1883
1890
1883
1872
1878
1872
1862
1859
1869
1859
1874
1873
1875
1874
1879
1869
1874
1872
1871
1861
1867
1859
1861
1866
1861
1857
1866
1862
1859
1867
1869
1866
1871
1868
1856
1857
1858
1872
1887
1916
1910
1914
1939
1955
1934
1930
1910
1862
1839
1841
1842
1829
1822
1814
1813
1808
1819
1812
1822
1804
1807
1796
1680
1529
1457
1757
2129
2961
3517
2776
2160
1857
1648
1552
1631
1727
1728
1716
1713
1712
1718
1729
1719
1723
1739
1732
1718
1717
1715
1699
1695
1699
1680
1675
1678
1648
1647
1654
1648
1648
1676
1673
1682
1730
1765
1799
1825
1852
1869
1904
1911
1917
1907
1925
1925
1920
1933
1931
1915
1922
1930
1921
1918
1937
1921
1915
1916
1909
1903
1915
1905
1899
1899
1900
1898
1904
1903
1933
1909
1921
1904
1909
1920
1913
1919
1921
1920
1904
1921
1920
1921
1917
1916
1909
1919
1921
1915
1920
1930
1919
1917
1929
1922
1919
1918
1921
1918
1916
1927
1922
1926
1935
1930
1936
1963
1993
2000
2006
2031
2056
2064
2031
2001
1984
1956
1928
1920
1930
1912
1907
1916
1911
1904
1911
1910
1909
1910
1919
1889
1725
1658
1664
1840
2331
3143
3621
2741
2069
1805
1667
1714
1815
1853
1842
1841
1840
1848
1850
1851
1865
1856
1855
1856
1855
1849
1856
1858
1840
1836
1840
1814
1808
1811
1802
1799
1809
1802
1809
1827
1847
1861
1886
1907
1921
1935
1952
1968
1968
1978
1971
1963
1982
1966
1962
2071
1967
1958
1968
1972
1970
1963
1968
1968
1967
1961
1952
1937
1938
1930
1927
1945
1950
1932
1933
1939
1936
1946
1943
1950
1936
1941
1945
1936
1952
1945
1936
1949
1956
1936
1943
1955
1941
1942
1961
1948
1955
1948
1937
1941
1942
1949
1947
1951
1942
1936
1936
1942
1949
1947
1950
1951
1937
1941
1947
1991
1949
1973
1939
1942
1949
1945
1951
1958
1946
1946
1963
1948
1946
1961
1968
1975
2005
2028
2023
2054
2075
2021
2003
1994
1961
1936
1923
1919
1915
1904
1906
1895
1894
1904
1891
1896
1902
1893
1878
1755
1632
1629
1759
2112
2896
3520
2774
2138
1790
1664
1712
1815
1840
1822
1796
1810
1811
1809
1815
1830
1830
1835
1835
1823
1823
1827
1810
1817
1820
1805
1792
1796
1782
1770
1769
1765
1777
1782
1808
1808
1823
1858
1868
1871
1883
1902
1894
1914
1904
1901
1906
1914
1901
1906
1909
1914
1905
1916
1917
1907
1921
1910
1904
1899
1904
1889
1895
1897
1891
1898
1903
1882
1893
1894
1878
1876
1889
1887
1889
1893
1882
1883
1904
1904
1882
1887
1894
1898
1887
1904
1902
1904
1904
1898
1890
1894
1898
1899
1898
1904
1893
1902
1900
1894
1892
1904
1895
1895
1905
1895
1895
1902
1895
1891
1889
1904
1891
1873
1904
1892
1885
1903
1898
1904
1905
1907
1901
1916
1910
1898
1906
1914
1909
1904
1911
1909
1910
1906
1910
1904
1915
1917
1915
1915
1923
1910
1914
1924
1915
1921
1931
1914
1906
1918
1918
1911
1924
1938
1918
1918
1936
1931
1935
1936
1921
1945
1972
1984
1978
1979
1986
1984
1968
1963
1936
1923
1916
1895
1910
1931
1907
1905
1911
1919
1908
1909
1915
1906
1904
1779
1670
1652
1776
2112
2768
3591
2815
2190
1869
1726
1770
1869
1872
1865
1857
1868
1869
1861
1871
1872
1862
1877
1873
1925
1884
1886
1879
1904
1894
1882
1877
1874
1867
1870
1872
1883
1870
1877
1888
1891
1920
1936
1923
1940
1970
1977
1984
1990
1967
1969
1983
1977
1970
1979
1968
1970
1972
1974
1970
1968
1981
1963
1968
1978
1958
1963
1959
1947
1936
1936
1926
1938
1945
1945
1936
1938
1936
1936
1935
1936
1925
1921
1946
1936
1936
1929
1929
1919
1930
1946
1929
1918
1930
1923
1920
1931
1921
1920
1936
1937
1919
1931
1887
1905
1910
1926
1917
1909
1923
1922
1926
1918
1914
1904
1921
1921
1911
1907
1918
1911
1923
1933
1930
1922
1919
1910
1905
1921
1925
1919
1907
1911
1922
1917
1920
1909
1916
1919
1918
1930
1936
1921
1919
1925
1926
1938
1959
1973
1963
1974
2007
2003
2000
2003
1971
1934
1933
1917
1911
1921
1918
1903
1904
1902
1892
1894
1906
1905
1904
1863
1694
1652
1723
1968
2530
3406
3354
2535
2080
1867
1683
1687
1801
1823
1818
1843
1829
1830
1851
1837
1827
1842
1847
1841
1829
1823
1814
1818
1821
1807
1804
1809
1792
1785
1776
1769
1771
1789
1808
1806
1815
1837
1861
1884
1920
1939
1960
1971
1971
1978
1987
1985
1981
1986
1985
1984
2000
2001
1981
1978
1995
1985
1977
1973
1987
1975
1920
1953
1952
1959
1959
1941
1942
1942
1931
1922
1927
1920
1921
1927
1931
1914
1926
1919
1921
1920
1924
1909
1917
1920
1912
1904
1907
1898
1890
1904
1899
1887
1889
1895
1894
1890
1907
1914
1927
1920
1945
1970
1971
1962
1956
1931
1904
1859
1840
1824
1818
1807
1815
1807
1808
1808
1796
1783
1798
1792
1776
1669
1509
1511
1675
2032
2783
3450
2846
2179
1808
1607
1502
1580
1670
1675
1667
1666
1663
1653
1659
1676
1677
1672
1666
1659
1663
1660
1643
1639
1631
1622
1603
1601
1585
1578
1563
1585
1578
1589
1595
1607
1634
1661
1697
1713
1755
1775
1789
1805
1806
1797
1805
1794
1792
1805
1810
1765
1792
1802
1803
1861
1806
1723
1795
1789
1792
1779
1777
1785
1783
1771
1785
1783
1775
1791
1793
1792
1776
1792
1791
1785
1797
1788
1777
1801
1787
1792
1809
1801
1808
1820
1813
1808
1814
1820
1814
1815
1837
1834
1827
1826
1824
1822
1841
1836
1827
1841
1840
1846
1853
1863
1879
1910
1936
1937
1975
2001
1978
1974
1957
1933
1884
1863
1868
1858
1857
1863
1842
1840
1858
1862
1858
1872
1872
1875
1798
1654
1609
1671
1959
2465
3487
3199
2370
1939
1707
1678
1779
1856
1856
1846
1855
1860
1851
1859
1876
1872
1872
1881
1881
1872
1904
1893
1888
1889
1886
1875
1874
1874
1872
1863
1872
1872
1887
1909
1907
1921
1959
1969
1987
2005
2033
2038
2046
2062
2039
2039
2061
2054
2046
2062
2055
2058
2064
2065
2053
2064
2070
2065
2071
2086
2064
2062
2067
2063
2032
2065
2055
2067
2068
2020
2080
2075
2077
2063
2066
2079
2064
2074
2083
2075
2071
2076
2074
2077
2094
2075
2074
2080
2083
2082
2080
2095
2085
2085
2101
2093
2090
2096
2087
2071
2085
2096
2095
2099
2110
2096
2089
2094
2096
2096
2098
2095
2086
2096
2096
2091
2095
2095
2094
2084
2102
2122
2133
2149
2166
2196
2197
2174
2153
2132
2096
2054
2031
2031
2027
2015
2010
1989
1993
1998
1994
1999
1995
1986
1957
1808
1722
1697
1859
2259
2973
3628
2709
2117
1840
1727
1805
1874
1943
1872
1848
1841
1845
1840
1840
1850
1841
1840
1842
1845
1842
1848
1833
1836
1825
1815
1811
1803
1802
1806
1801
1799
1801
1808
1830
1839
1840
1862
1886
1904
1927
1926
1926
1935
1939
1936
1941
1945
1930
1931
1939
1955
1937
1942
1937
1924
1936
1947
1938
1935
1923
1909
1909
1925
1909
1904
1891
1890
1884
1898
1894
1901
1898
1904
1874
1884
1895
1894
1886
1875
1862
1857
1873
1849
1853
1870
1877
1882
1883
1868
1847
1842
1854
1943
1885
1870
1866
1856
1861
1855
1847
1872
1867
1852
1862
1863
1859
1862
1866
1856
1843
1855
1855
1854
1843
1855
1859
1856
1855
1841
1846
1862
1863
1856
1856
1851
1855
1861
1863
1865
1878
1867
1865
1875
1907
1913
1925
1952
1968
1965
1968
1951
1919
1889
1869
1859
1872
1870
1854
1853
1859
1859
1847
1869
1850
1858
1865
1786
1634
1611
1697
1946
2544
3377
3138
2399
1990
1792
1643
1683
1776
1797
1792
1798
1797
1820
1807
1808
1803
1820
1809
1808
1811
1809
1795
1808
1803
1781
1776
1775
1766
1763
1766
1757
1751
1781
1786
1808
1823
1829
1857
1888
1906
1937
1963
1968
1983
1991
2007
1995
2002
2000
2001
1998
2018
2003
2002
2012
2002
1999
2013
2016
1998
1998
1999
1990
1985
2000
1982
1968
1984
1981
1987
1987
1994
1987
2000
2002
1998
1999
2003
2009
2015
2015
2027
2002
2013
2011
2006
2018
2028
2013
2015
2038
2021
2029
2032
2042
2033
2034
2031
2021
2035
2032
2032
2032
2036
2033
2044
2042
2035
2032
2043
2037
2051
2059
2053
2069
2103
2096
2112
2128
2146
2143
2128
2127
2077
2037
2030
2032
2030
2031
2010
2000
2002
2015
2007
2001
2001
2000
2000
1925
1771
1757
1857
2133
2782
3710
3263
2471
2064
1859
1746
1814
1918
1927
1926
1923
1914
1920
1921
1925
1920
1925
1919
1911
1904
1913
1904
1899
1909
1894
1882
1874
1872
1872
1863
1846
1850
1857
1874
1881
1905
1926
1942
1970
2004
2018
2029
2035
2034
2034
2041
2044
2034
2039
2026
2029
2036
2036
2027
2032
2032
2010
2009
2020
2007
2000
2018
2009
1999
1991
2013
2002
1990
1994
1987
1986
1998
1994
1984
1997
1995
1995
1995
1986
1980
1989
1996
1972
1983
1989
1974
1978
1987
1974
1973
1984
1974
1967
1971
1975
1969
1978
1985
1968
1963
1972
1968
1958
1988
1947
1948
1934
1950
1968
1950
1967
2007
2053
1961
2005
1953
1984
1913
1945
1958
1970
2000
2017
2023
2034
2056
2063
2017
2032
2001
1963
1930
1923
1917
1914
1914
1904
1890
1903
1891
1893
1899
1914
1899
1872
1735
1633
1630
1793
2164
2869
3482
2666
2066
1783
1663
1742
1837
1854
1829
1835
1834
1835
1831
1839
1845
1840
1840
1841
1823
1831
1830
1808
1823
1840
1811
1811
1803
1798
1795
1792
1794
1789
1808
1824
1822
1834
1863
1863
1872
1901
1909
1918
1936
1927
1920
1918
1915
1920
1907
1910
1904
1911
1915
1892
1899
1903
1887
1889
1894
1889
1874
1874
1878
1862
1865
1865
1856
1858
1862
1855
1855
1846
1839
1840
1845
1841
1841
1839
1840
1824
1822
1829
1825
1811
1819
1813
1813
1808
1801
1805
1814
1817
1797
1797
1777
1791
1783
1792
1774
1779
1782
1776
1765
1775
1761
1764
1773
1775
1767
1751
1754
1747
1770
1776
1746
1753
1760
1719
1744
1767
1792
1746
1808
1840
1847
1837
1822
1807
1764
1739
1709
1703
1717
1711
1703
1693
1691
1687
1695
1697
1702
1697
1693
1613
1464
1456
1502
1745
2325
3099
2928
2203
1794
1584
1456
1520
1616
1648
1648
1645
1643
1638
1651
1657
1667
1649
1660
1665
1655
1659
1649
1659
1641
1647
1651
1641
1629
1616
1611
1616
1617
1634
1641
1651
1671
1677
1713
1744
1754
1776
1808
1812
1829
1850
1847
1837
1845
1844
1843
1840
1853
1849
1845
1869
1857
1858
1863
1856
1863
1870
1857
1851
1857
1858
1847
1869
1869
1866
1869
1870
1872
1872
1881
1874
1875
1882
1894
1882
1882
1891
1899
1895
1895
1886
1889
1914
1907
1905
1909
1906
1888
1901
1915
1929
1952
1968
1978
1981
1999
2010
2018
2006
1989
1984
1968
1935
1922
1920
1930
1922
1910
1911
1906
1907
1919
1912
1922
1936
1936
1881
1760
1674
1715
1973
2416
3209
3614
2727
2193
1943
1730
1697
1792
1853
1866
1847
1843
1855
1857
1854
1865
1870
1872
1869
1856
1858
1870
1840
1835
1840
1835
1810
1805
1794
1789
1783
1781
1782
1798
1808
1818
1843
1887
1910
1939
1967
2000
2010
2034
2057
2043
2052
2053
2037
2044
2044
2011
2037
2055
2058
2044
2062
2077
2054
2045
2047
2032
2031
2041
2024
2031
2032
2018
2015
2026
2031
2014
2022
2031
2022
2021
2032
2031
2030
1985
2026
2021
2043
2037
2034
2044
2032
2019
2032
2038
2035
2043
2039
2030
2032
2045
2038
2043
2042
2036
2041
2046
2030
2031
2080
2032
2034
2042
2039
2032
2032
2046
2039
2032
2039
2036
2023
2047
2089
2106
2109
2115
2147
2161
2151
2107
2086
2067
2035
2004
2033
2010
1993
1988
1984
1975
1984
2000
1984
1982
1984
1981
1935
1785
1741
1745
1939
2368
3186
3479
2604
2064
1817
1746
1842
1919
1927
1920
1908
1922
1914
1910
1911
1927
1914
1924
1935
1919
1920
1930
1913
1906
1895
1899
1881
1894
1886
1875
1873
1874
1878
1890
1904
1909
1933
1951
1949
1968
1994
1997
2005
2018
2030
2014
2000
2005
2000
2001
2013
1995
1998
2007
1999
1995
2001
1995
1987
1994
1903
1997
1977
1991
1971
1971
1983
1969
1965
1982
1965
1963
1963
1962
1961
1968
1970
1954
1949
1966
1967
1955
1961
1952
1951
1958
1955
1942
1940
1937
1942
1957
1937
1935
1950
1948
1939
1936
1936
1934
1936
1942
1934
1931
1936
1923
1920
1923
1936
1926
1923
1931
1910
1920
1936
1930
1924
1913
1920
1920
1921
1923
1915
1911
1934
1955
1981
1985
1996
2015
2041
2032
2000
1984
1950
1917
1891
1899
1882
1887
1881
1872
1872
1865
1875
1872
1883
1875
1871
1802
1645
1585
1614
1881
2352
3216
3296
2367
1915
1687
1654
1766
1809
1811
1793
1794
1808
1798
1801
1798
1791
1794
1801
1793
1801
1802
1801
1791
1792
1787
1771
1766
1770
1761
1745
1745
1745
1756
1761
1771
1787
1815
1833
1840
1850
1867
1872
1879
1890
1893
1899
1902
1885
1897
1902
1881
1894
1899
1891
1867
1886
1897
1886
1872
1872
1869
1866
1876
1872
1856
1863
1865
1869
1867
1869
1856
1869
1861
1867
1860
1872
1877
1862
1856
1807
1876
1856
1855
1856
1861
1871
1861
1856
1872
1861
1867
1873
1863
1869
1885
1878
1861
1875
1867
1871
1870
1872
1872
1875
1875
1872
1871
1874
1867
1872
1876
1869
1874
1882
1874
1859
1867
1881
1872
1874
1893
1867
1872
1895
1904
1925
1936
1952
1956
1974
2013
1899
1956
1939
1900
1888
1911
1899
1853
1862
1867
1840
1847
1859
1853
1863
1872
1870
1863
1755
1610
1639
1815
2160
2907
3565
2899
2267
1932
1727
1620
1693
1787
1792
1781
1793
1791
1805
1811
1791
1776
1798
1796
1775
1777
1776
1787
1776
1770
1752
1745
1749
1744
1730
1735
1725
1727
1744
1738
1741
1776
1798
1808
1839
1877
1902
1878
1962
1984
1971
1976
1983
1966
1983
1999
1989
1969
1981
1969
1975
1984
1984
1979
1969
1971
1967
1969
1975
1961
1940
1967
1965
1962
1959
1950
1955
1951
1949
1958
1969
1968
1950
1952
1954
1904
1959
1962
1957
1963
1969
1966
1962
1969
1955
1951
1946
1945
1949
1943
1950
1939
1946
1969
1979
1996
2003
1995
2013
2043
2039
2013
2026
1993
1951
1934
1941
1938
1936
1921
1917
1905
1906
1910
1904
1919
1914
1907
1917
1815
1669
1655
1766
2144
2738
3631
3271
2361
2010
1791
1648
1713
1800
1817
1817
1811
1807
1815
1828
1819
1825
1819
1826
1810
1808
1812
1808
1808
1799
1783
1776
1776
1765
1755
1770
1749
1749
1762
1770
1783
1807
1829
1840
1874
1915
1927
1955
1975
1982
1985
1979
1972
1968
1979
1973
1982
1984
1987
1970
1970
1983
1970
1967
1979
1963
1964
1973
1961
1943
1942
1946
1940
1931
1936
1934
1924
1937
1936
1943
1947
1940
1935
1949
1935
1927
1937
1942
1936
1936
1942
1941
1939
1953
1938
1940
1953
1936
1936
1942
1934
1938
1935
1937
1933
1933
1936
1925
1929
1936
1929
1933
1945
1930
1923
1929
1926
1920
1936
1936
1939
2000
2002
1996
2003
2032
2047
2030
2002
1991
1953
1934
1911
1894
1902
1904
1893
1887
1893
1876
1873
1881
1871
1878
1891
1844
1690
1609
1606
1772
2195
2960
3431
2594
2018
1717
1648
1745
1795
1844
1830
1834
1808
1818
1826
1809
1826
1826
1825
1827
1837
1839
1824
1819
1818
1808
1801
1803
1806
1789
1792
1777
1767
1793
1795
1808
1819
1831
1852
1858
1871
1872
1895
1911
1911
1919
1917
1910
1916
1919
1902
1894
1906
1893
1887
1904
1895
1889
1890
1891
1877
1864
1866
1856
1857
1858
1845
1846
1857
1850
1847
1848
1841
1830
1833
1828
1817
1820
1829
1823
1808
1813
1811
1809
1808
1802
1801
1801
1796
1799
1801
1792
1793
1790
1793
1801
1785
1773
1782
1779
1790
1778
1772
1770
1761
1751
1756
1767
1750
1742
1744
1744
1753
1748
1759
1782
1811
1814
1806
1839
1856
1824
1803
1787
1745
1714
1712
1697
1702
1695
1690
1680
1680
1681
1675
1670
1680
1671
1669
1605
1450
1389
1411
1659
2129
2964
2985
2187
1719
1472
1408
1517
1587
1584
1579
1580
1586
1568
1577
1579
1571
1567
1570
1552
1570
1573
1553
1559
1547
1531
1535
1547
1533
1503
1507
1498
1513
1510
1546
1552
1562
1589
1605
1628
1650
1663
1666
1683
1697
1701
1712
1702
1708
1719
1722
1714
1721
1728
1728
1728
1728
1713
1726
1734
1725
1723
1730
1746
1739
1738
1731
1726
1733
1762
1746
1760
1770
1759
1750
1771
1775
1776
1776
1789
1781
1771
1781
1792
1789
1805
1798
1806
1815
1822
1805
1823
1825
1823
1837
1847
1843
1840
1868
1887
1904
1911
1936
1962
1984
1982
1966
1952
1926
1883
1884
1901
1902
1902
1901
1891
1882
1893
1904
1911
1929
1929
1917
1884
1757
1664
1713
1989
2432
3262
3648
2727
2193
1968
1745
1723
1834
1904
1900
1894
1907
1905
1904
1926
1925
1914
1920
1907
1904
1910
1913
1904
1901
1888
1872
1879
1878
1866
1860
1866
1861
1847
1861
1873
1893
1931
1971
1977
2014
2064
2091
2112
2139
2141
2144
2151
2144
2144
2140
2143
2133
2153
2160
2148
2145
2162
2156
2147
2149
2146
2148
2147
2132
2127
2143
2139
2143
2156
2147
2144
2149
2149
2156
2147
2162
2160
2159
2159
2144
2140
2157
2160
2160
2149
2156
2146
2151
2165
2145
2157
2180
2192
2194
2205
2211
2224
2222
2207
2187
2146
2123
2122
2113
2111
2097
2083
2078
2079
2078
2074
2082
2085
2093
2091
2054
1925
1818
1818
2000
2390
3276
4006
3088
2411
2055
1856
1811
1891
1967
1973
1949
1942
1964
1947
1950
1951
1945
1945
1935
1936
1930
1925
1921
1904
1899
1903
1878
1867
1866
1849
1836
1841
1834
1837
1858
1875
1893
1910
1946
1963
1998
2019
2029
2032
2042
2043
2044
2053
2031
2032
2037
2037
2032
2027
2028
2022
2015
2021
2017
2002
1997
1996
1994
1978
1968
1957
1949
1963
1949
1929
1948
1936
1939
1949
1942
1934
1934
1937
1925
1929
1919
1929
1921
1934
1918
1931
1929
1918
1927
1929
1921
1905
1914
1907
1906
1917
1929
1925
1916
1917
1903
1915
1943
1970
1979
2000
2027
2034
2025
2000
1974
1939
1923
1893
1882
1883
1882
1871
1878
1888
1885
1890
1901
1891
1904
1902
1850
1685
1630
1648
1872
2359
3408
3489
2576
2014
1723
1715
1830
1893
1886
1876
1872
1876
1889
1889
1879
1894
1899
1904
1903
1905
1894
1898
1894
1888
1891
1883
1854
1850
1867
1860
1851
1843
1852
1861
1877
1897
1915
1937
1955
1969
1982
2006
1995
2000
2019
2019
2018
2014
1999
2000
1993
2009
2005
2009
2010
1997
1987
2009
1994
1992
2011
1971
1969
1984
1982
1968
1967
1977
1955
1965
1968
1971
1959
1959
1967
1968
1969
1968
1947
1951
1968
1965
1967
1959
1939
1943
1949
1938
1944
1951
1953
1952
1960
1955
1949
1968
1965
1943
1953
1967
1947
1968
1994
1994
2007
2039
2074
2086
2073
2042
2022
1994
1954
1933
1925
1922
1919
1921
1923
1906
1911
1922
1918
1904
1932
1910
1802
1667
1631
1728
2061
2667
3649
3010
2269
1920
1701
1692
1783
1825
1829
1837
1811
1815
1837
1840
1840
1835
1825
1834
1850
1848
1823
1823
1838
1830
1822
1808
1809
1802
1800
1781
1776
1777
1799
1808
1838
1842
1868
1907
1922
1891
1957
1985
2005
2017
2028
2007
2007
2012
2034
2021
2026
2019
2000
2007
2023
2011
2000
2007
2005
2010
2006
1996
2000
1995
2000
1983
1982
1984
1993
1993
2000
1997
1981
1994
1990
1977
1968
1970
1985
1983
1984
1985
1985
2001
1984
1971
1974
1985
1990
1995
2005
2014
2038
2041
2070
2106
2107
2096
2089
2077
2011
1988
1981
1968
1966
1967
2003
1910
1968
1964
1940
1947
1953
1945
1931
1921
1708
1675
1801
2124
2685
3616
3291
2485
2032
1835
1686
1732
1852
1867
1856
1856
1841
1854
1867
1874
1846
1858
1862
1850
1846
1840
1825
1822
1811
1807
1792
1794
1788
1759
1745
1747
1743
1751
1775
1769
1793
1825
1853
1885
1918
1923
1966
1995
1983
1994
2017
2017
2005
2000
2002
2013
2017
2009
2000
2000
2011
1995
1989
1989
1975
1968
1974
1982
1962
1958
1948
1946
1963
1984
1954
1954
1959
1947
1946
1945
1943
1946
1952
1937
1928
1941
1954
1949
1936
1941
1935
1938
1947
1945
1961
1983
2006
2013
2032
2056
2029
2020
2002
1956
1911
1904
1893
1891
1890
1886
1867
1870
1870
1857
1861
1872
1879
1872
1840
1687
1594
1626
1856
2275
3227
3600
2705
2129
1818
1646
1643
1732
1782
1788
1787
1780
1776
1792
1787
1782
1787
1797
1790
1791
1792
1772
1783
1781
1775
1791
1762
1755
1744
1744
1734
1729
1748
1761
1767
1787
1799
1825
1847
1878
1893
1926
1946
1959
1952
1955
1942
1941
1943
1941
1945
1942
1950
1939
1941
1936
1926
1937
1936
1939
1925
1921
1918
1911
1913
1905
1903
1907
1913
1903
1905
1911
1902
1904
1909
1909
1913
1916
1906
1899
1894
1905
1900
1905
1905
1905
1907
1904
1904
1904
1909
1904
1904
1900
1897
1895
1897
1905
1893
1904
1934
1959
1984
1995
2003
2015
2032
2014
1998
1983
1939
1891
1872
1882
1872
1862
1866
1853
1842
1846
1843
1840
1846
1863
1850
1770
1622
1551
1589
1863
2383
3301
3217
2358
1857
1635
1663
1760
1793
1807
1795
1788
1778
1782
1785
1803
1795
1799
1801
1807
1804
1806
1805
1792
1793
1786
1781
1787
1774
1768
1758
1760
1762
1773
1778
1796
1808
1829
1853
1855
1879
1903
1906
1918
1931
1927
1919
1923
1920
1921
1924
1918
1915
1920
1932
1917
1909
1923
1911
1902
1910
1907
1911
1908
1902
1899
1899
1909
1890
1887
1891
1883
1887
1899
1901
1888
1888
1889
1887
1887
1877
1887
1887
1885
1872
1872
1893
1877
1872
1874
1874
1864
1872
1885
1870
1872
1872
1857
1872
1882
1859
1846
1853
1846
1853
1870
1887
1888
1904
1938
1959
1947
1919
1904
1875
1855
1804
1799
1799
1779
1783
1784
1790
1788
1788
1776
1776
1787
1799
1728
1549
1508
1522
1743
2298
3137
3164
2369
1838
1613
1526
1620
1707
1715
1707
1696
1691
1708
1698
1686
1713
1708
1697
1695
1707
1694
1702
1683
1689
1683
1690
1671
1657
1658
1643
1674
1641
1647
1663
1680
1699
1699
1729
1767
1779
1795
1823
1844
1846
1859
1857
1863
1867
1862
1859
1862
1870
1849
1854
1863
1858
1856
1855
1849
1856
1857
1854
1845
1839
1840
1839
1837
1856
1853
1842
1842
1846
1843
1859
1862
1859
1859
1861
1862
1863
1863
1859
1862
1875
1872
1861
1871
1873
1856
1858
1868
1867
1882
1877
1904
1925
1937
1939
1979
2002
1987
1987
1995
1955
1915
1872
1859
1867
1876
1874
1856
1850
1860
1857
1859
1877
1871
1856
1863
1738
1616
1608
1783
2219
2910
3611
2912
2189
1919
1695
1643
1744
1795
1807
1807
1807
1809
1807
1819
1799
1806
1831
1810
1807
1809
1811
1805
1807
1779
1776
1776
1772
1750
1749
1758
1745
1754
1755
1750
1792
1824
1839
1860
1905
1945
1946
1971
2001
2009
2003
2019
2013
2025
2018
2018
2021
2020
2023
2007
2031
2030
2014
2017
2014
2002
2000
2006
2000
2001
2006
2007
2013
2022
2011
1994
2007
1968
1999
2012
2037
2010
2003
2002
2012
2003
2019
2010
2004
2009
2016
2012
1994
2000
2017
2011
2021
2013
2006
2011
2010
2015
2030
2061
2067
2085
2107
2122
2103
2123
2105
2063
2029
1985
1979
1987
1982
1970
1969
1968
1958
1978
1968
1967
1968
1975
1933
1791
1711
1729
1953
2400
3376
3642
2715
2163
1873
1735
1767
1861
1899
1903
1889
1882
1893
1893
1891
1897
1892
1894
1909
1904
1890
1879
1890
1873
1872
1871
1854
1841
1840
1827
1825
1835
1839
1840
1862
1872
1887
1910
1936
1947
1985
2000
2005
2018
2029
2026
1994
2023
2015
2011
2025
2030
2018
2017
2018
2013
2002
2009
1997
1987
2000
1993
1984
1979
1983
1974
1968
1984
1978
1971
1969
1967
1973
1973
1968
1963
1971
1968
1961
1963
1975
1963
1963
1974
1957
1962
1971
1963
1956
1971
1969
1984
1968
1973
1958
1964
1962
1956
1961
1984
1962
1955
1958
1953
1953
1960
1957
1975
1954
1953
1939
1943
1942
1936
1939
1970
1997
2000
2005
2032
2070
2063
2037
2019
1984
1962
1920
1911
1904
1898
1903
1898
1887
1891
1886
1887
1877
1879
1881
1851
1680
1611
1598
1780
2277
3115
3331
2530
1923
1678
1658
1766
1830
1835
1825
1810
1810
1815
1810
1815
1826
1831
1840
1841
1834
1825
1827
1830
1822
1815
1821
1809
1788
1799
1789
1787
1792
1797
1777
1813
1837
1840
1869
1872
1892
1926
1936
1939
1942
1949
1947
1943
1948
1936
1931
1914
1947
1934
1931
1918
1925
1935
1942
1930
1920
1923
1914
1906
1910
1911
1914
1919
1901
1901
1888
1902
1890
1901
1901
1891
1890
1887
1890
1885
1891
1900
1872
1871
1875
1872
1883
1885
1879
1878
1879
1891
1877
1888
1874
1877
1889
1886
1877
1876
1882
1876
1873
1872
1871
1872
1885
1887
1909
1917
1926
1935
1970
1987
1985
1981
1979
1941
1923
1900
1866
1867
1873
1863
1853
1845
1849
1856
1851
1843
1852
1872
1830
1674
1585
1616
1870
2276
3051
3406
2482
2011
1796
1632
1670
1765
1787
1792
1795
1791
1789
1795
1805
1803
1797
1814
1808
1808
1807
1802
1808
1803
1797
1781
1776
1771
1749
1734
1736
1746
1750
1774
1779
1806
1814
1844
1863
1900
1911
1930
1953
1963
1969
1975
1980
1987
1986
1985
1984
1984
1985
1980
1978
1987
1979
1968
1979
1985
1970
1965
1961
1950
1951
1967
1949
1945
1955
1955
1958
1967
1969
1961
1967
1963
1946
1951
1959
1951
1949
1968
1949
1950
1957
1947
1943
1954
1969
1979
1999
2007
2019
2047
2064
2051
2054
2055
2003
1959
1925
1909
1906
1919
1908
1890
1879
1890
1882
1887
1892
1883
1882
1872
1726
1618
1618
1811
2267
3031
3575
2779
2110
1855
1655
1605
1736
1777
1776
1763
1747
1763
1763
1771
1762
1765
1758
1749
1758
1755
1744
1751
1722
1719
1703
1706
1680
1662
1654
1680
1659
1658
1679
1664
1678
1707
1740
1766
1792
1813
1827
1856
1879
1874
1873
1877
1869
1872
1872
1862
1867
1875
1860
1842
1846
1851
1838
1831
1835
1824
1826
1815
1808
1799
1806
1796
1793
1790
1792
1792
1799
1781
1781
1780
1792
1776
1778
1781
1771
1774
1775
1776
1768
1782
1776
1765
1767
1769
1751
1769
1776
1753
1744
1763
1770
1757
1774
1798
1822
1838
1851
1872
1887
1873
1857
1835
1794
1743
1727
1731
1724
1719
1725
1734
1735
1723
1721
1725
1734
1729
1712
1622
1543
1447
1535
1981
2608
3367
2846
2098
1677
1503
1511
1617
1682
1682
1673
1669
1682
1678
1687
1691
1691
1691
1694
1697
1701
1699
1712
1707
1697
1709
1698
1697
1684
1666
1678
1680
1689
1683
1706
1722
1737
1751
1776
1793
1825
1762
1855
1859
1871
1885
1878
1879
1878
1869
1871
1883
1872
1879
1893
1881
1887
1885
1883
1882
1894
1887
1878
1889
1881
1886
1888
1887
1882
1887
1906
1895
1895
1904
1904
1905
1906
1910
1909
1916
1917
1914
1917
1929
1922
1921
1927
1932
1933
1936
1919
1930
1939
1951
1939
1942
1952
1936
1943
1966
1984
2000
2030
2017
2046
2095
2096
2066
2054
2032
1990
1961
1940
1927
1936
1943
1934
1924
1938
1931
1931
1934
1936
1936
1935
1823
1680
1649
1744
2071
2671
3610
2982
2240
1872
1710
1744
1855
1883
1872
1876
1872
1857
1853
1865
1861
1866
1871
1868
1868
1873
1877
1862
1857
1853
1849
1835
1823
1808
1812
1823
1805
1811
1839
1834
1846
1871
1903
1916
1931
1947
1963
1971
1996
2000
2010
2007
2007
1996
1993
1991
1993
1994
1991
1979
1979
1993
1987
1988
1984
1975
1979
1980
1971
1973
1984
1987
1975
1975
1979
1974
1978
1979
1967
1968
1979
1971
1961
1973
1978
1985
1984
1979
1983
1984
1989
1984
1993
1997
1985
1989
1998
1989
1996
2014
2015
2000
2007
2046
2069
2078
2096
2111
2111
2122
2109
2085
2057
2015
2009
2001
2001
1982
1983
1995
1984
1984
1987
1977
1918
2006
1990
1818
1746
1754
1843
2333
3088
3777
2963
2250
1967
1803
1759
1863
1925
1933
1911
1907
1919
1919
1922
1919
1931
1925
1927
1929
1919
1918
1915
1903
1897
1883
1875
1865
1856
1854
1835
1830
1846
1850
1866
1892
1902
1923
1968
1995
2026
2058
2091
2097
2103
2112
2113
2102
2109
2110
2113
2114
2106
2098
2098
2111
2101
2106
2097
2083
2064
2074
2064
2064
2032
2053
2055
2146
2063
2063
2064
2047
2032
2042
2061
2043
2037
2055
2043
2039
2035
2032
2029
2032
2032
2031
2022
2021
2007
2015
2019
2047
2078
2093
2090
2096
2130
2110
2098
2094
2054
2006
1965
1975
1957
1945
1936
1932
1924
1922
1923
1920
1921
1924
1915
1884
1747
1649
1648
1867
2247
2992
3634
2715
2142
1872
1687
1663
1769
1814
1793
1801
1801
1783
1798
1794
1785
1796
1805
1801
1787
1792
1797
1773
1776
1772
1757
1744
1734
1719
1718
1717
1713
1718
1735
1733
1748
1776
1797
1819
1853
1870
1877
1905
1916
1907
1913
1926
1918
1922
1931
1936
1922
1922
1923
1913
1903
1907
1883
1889
1905
1893
1877
1890
1872
1870
1881
1879
1872
1875
1886
1872
1872
1882
1887
1878
1885
1886
1888
1891
1879
1876
1886
1883
1872
1870
1888
1883
1879
1887
1885
1879
1883
1887
1876
1898
1893
1877
1882
1916
1871
1878
1884
1878
1895
1929
1943
1976
1978
2001
2018
2003
2000
1967
1925
1904
1869
1869
1865
1852
1851
1861
1850
1848
1842
1851
1851
1857
1849
1775
1623
1572
1604
1879
2391
3392
3058
2295
1861
1631
1657
1776
1808
1808
1810
1806
1806
1813
1800
1808
1820
1822
1819
1814
1824
1825
1825
1825
1808
1807
1808
1791
1787
1793
1792
1783
1791
1791
1801
1805
1831
1851
1871
1898
1904
1920
1937
1942
1951
1958
1952
1953
1952
1945
1936
1920
1923
1946
1938
1958
1940
1947
1946
1938
1932
1939
1950
1938
1935
1914
1928
1933
1936
1927
1922
1921
1936
1920
1942
1925
1935
1922
1927
1908
1919
1931
1923
1914
1921
1907
1908
1918
1917
1905
1911
1905
1904
1919
1925
1918
1907
1913
1904
1904
1906
1902
1903
1911
1903
1901
1918
1933
1967
1967
1976
1997
2017
2007
1990
1979
1951
1927
1885
1883
1892
1863
1859
1863
1856
1856
1856
1856
1858
1858
1855
1776
1695
1598
1671
1937
2433
3377
2993
2288
1929
1697
1627
1729
1803
1819
1809
1801
1791
1792
1798
1811
1810
1806
1815
1811
1810
1807
1805
1791
1781
1794
1786
1782
1778
1755
1742
1744
1757
1758
1776
1803
1814
1824
1864
1878
1893
1915
1936
1963
1968
1965
1964
1970
1986
1967
1963
1973
1966
1968
1969
1953
1967
1970
1963
1956
1956
1973
1956
1940
1939
1943
1954
1962
1951
1962
1959
1957
1955
1957
1962
1947
1951
1959
1964
1950
1965
1957
1956
1961
1960
1962
1961
1966
1952
1975
1999
2000
2015
2027
2061
2079
2070
2063
2064
2027
1983
1936
1936
1938
1934
1914
1909
1906
1918
1917
1919
1919
1921
1918
1897
1786
1671
1675
1868
2253
2947
3617
2782
2193
1936
1723
1684
1775
1840
1829
1818
1829
1839
1835
1838
1848
1840
1840
1843
1847
1843
1840
1810
1808
1808
1783
1774
1763
1757
1745
1754
1746
1744
1757
1776
1792
1787
1840
1871
1895
1927
1967
1953
1993
1997
1991
1996
1998
1996
1998
2009
1995
1998
2000
1998
2000
1995
1986
1990
1982
1977
1968
1960
1973
1963
1958
1961
1968
1965
1970
1962
1965
1968
1968
1981
1984
1968
1956
1965
1968
1965
1968
1978
1971
1975
1964
1967
1963
1959
1963
1968
1968
1975
1965
2007
2026
2015
2027
2068
2093
2064
2066
2046
2002
1968
1936
1925
1927
1934
1907
1904
1913
1906
1891
1904
1910
1915
1901
1855
1682
1623
1676
1926
2416
3242
3334
2469
1999
1753
1643
1734
1829
1831
1817
1824
1820
1830
1829
1835
1842
1878
1854
1840
1849
1855
1839
1845
1835
1824
1810
1815
1805
1797
1803
1792
1791
1789
1791
1795
1815
1840
1847
1878
1909
1914
1936
1950
1939
1942
1963
1957
1939
1949
1941
1934
1939
1938
1936
1940
1952
1937
1925
1933
1930
1921
1923
1919
1910
1911
1904
1901
1901
1926
1910
1920
1924
1921
1918
1921
1905
1909
1913
1917
1907
1916
1929
1909
1913
1920
1905
1909
1917
1923
1914
1905
1905
1902
1909
1904
1903
1904
1919
1943
1962
1979
1983
2013
2037
2021
2010
1988
1939
1904
1872
1877
1857
1866
1872
1854
1843
1856
1846
1842
1851
1855
1856
1792
1620
1552
1594
1866
2362
3267
3232
2383
1895
1668
1650
1750
1811
1808
1793
1793
1793
1786
1791
1807
1795
1810
1815
1811
1796
1803
1801
1789
1799
1792
1778
1770
1769
1753
1747
1751
1758
1762
1776
1776
1791
1808
1851
1845
1866
1786
1904
1918
1910
1951
1920
1930
1917
1909
1922
1913
1904
1905
1899
1903
1898
1913
1903
1904
1907
1893
1886
1904
1893
1881
1874
1875
1887
1894
1878
1873
1872
1873
1881
1873
1886
1888
1872
1883
1883
1875
1865
1872
1863
1861
1875
1861
1871
1885
1871
1861
1870
1872
1871
1874
1870
1883
1915
1925
1922
1937
1985
1968
1975
1965
1925
1905
1870
1847
1841
1855
1840
1823
1861
1839
1821
1812
1834
1835
1836
1819
1674
1579
1589
1774
2243
3002
3478
2672
2043
1824
1622
1592
1722
1773
1766
1777
1765
1762
1760
1765
1757
1776
1779
1774
1774
1773
1767
1741
1755
1738
1722
1729
1722
1702
1693
1691
1683
1710
1719
1718
1735
1764
1770
1791
1835
1869
1897
1920
1931
1935
1943
1960
1961
1945
1950
1949
1953
1968
1958
1947
1946
1950
1938
1954
1936
1918
1921
1935
1936
1937
1949
1935
1925
1942
1939
1923
1939
1901
1935
1929
1920
1936
1938
1936
1931
1942
1949
1946
1967
1962
1989
2004
2010
2010
2046
2083
2058
2045
2035
2004
1963
1939
1949
1930
1917
1918
1929
1908
1897
1915
1898
1899
1920
1904
1874
1751
1643
1699
1947
2362
3253
3519
2679
2137
1860
1680
1674
1775
1831
1815
1817
1835
1833
1825
1826
1825
1821
1827
1840
1831
1816
1814
1794
1794
1807
1792
1767
1758
1744
1719
1730
1728
1728
1745
1751
1771
1792
1822
1856
1885
1926
1949
1970
1985
1984
1979
1985
1994
1984
1998
1997
1986
1984
1986
1989
1975
1973
1978
1967
1962
1970
1961
1963
1964
1941
1951
1967
1968
1966
1961
1968
1965
1973
1971
1958
1963
1967
1972
1966
1966
1961
1968
1968
1963
1967
1965
1958
1987
2021
2026
2018
2061
2099
2079
2077
2077
2015
1991
1965
1941
1932
1931
1910
1901
1906
1909
1904
1905
1899
1893
1905
1904
1769
1654
1645
1713
2171
2843
3670
3019
2201
1884
1689
1671
1791
1840
1840
1827
1818
1818
1836
1898
1831
1846
1843
1825
1840
1850
1839
1833
1835
1825
1808
1809
1804
1795
1795
1794
1778
1790
1794
1797
1826
1845
1856
1883
1905
1920
1944
1969
1970
1968
1978
1979
1975
1975
1984
1975
1973
1975
1972
1961
1962
1954
1951
1959
1949
1941
1936
1934
1930
1920
1922
1907
1918
1923
1920
1921
1923
1923
1920
1919
1905
1897
1905
1907
1897
1893
1893
1883
1877
1894
1875
1873
1878
1872
1862
1872
1872
1866
1860
1871
1858
1858
1897
1919
1919
1936
1962
1968
1943
1982
1900
1865
1829
1792
1779
1786
1759
1748
1751
1750
1735
1739
1730
1735
1733
1726
1648
1470
1411
1443
1693
2199
3171
2960
2176
1712
1442
1455
1570
1606
1597
1599
1584
1568
1581
1584
1584
1584
1577
1581
1579
1571
1552
1535
1529
1527
1533
1520
1494
1488
1486
1478
1475
1475
1477
1483
1512
1534
1550
1562
1581
1594
1623
1626
1634
1637
1641
1595
1648
1707
1669
1637
1633
1639
1631
1638
1631
1616
1616
1616
1626
1634
1631
1610
1611
1616
1616
1613
1622
1638
1620
1622
1648
1642
1631
1636
1646
1623
1648
1648
1643
1651
1655
1639
1636
1663
1664
1667
1667
1666
1659
1680
1682
1680
1714
1728
1733
1748
1776
1798
1806
1814
1812
1783
1758
1718
1706
1717
1719
1697
1694
1706
1713
1719
1715
1713
1731
1737
1712
1617
1502
1499
1680
2058
2682
3433
2753
2099
1805
1635
1559
1648
1721
1754
1746
1735
1759
1776
1783
1779
1779
1783
1792
1806
1797
1790
1813
1794
1799
1782
1775
1790
1776
1772
1775
1781
1777
1776
1787
1830
1857
1869
1905
1947
1979
2000
2042
2068
2086
2091
2081
2078
2090
2105
2112
2119
2101
2096
2114
2109
2113
2120
2130
2119
2112
2112
2105
2121
2126
2128
2130
2134
2128
2112
2119
2131
2128
2139
2145
2138
2146
2157
2140
2154
2166
2156
2155
2163
2158
2158
2157
2192
2221
2226
2239
2275
2277
2275
2258
2241
2229
2173
2133
2134
2121
2117
2119
2112
2107
2102
2103
2106
2113
2115
2096
2042
1904
1845
1904
2189
2650
3581
3668
2725
2242
2026
1859
1898
2000
2034
2001
2019
2033
2019
2022
2018
2029
2012
2007
2027
2009
2000
2003
1998
1987
1984
1959
1941
1949
1936
1920
1931
1925
1917
1931
1949
1961
1979
2030
2070
2105
2117
2133
2154
2176
2183
2160
2161
2166
2166
2175
2178
2166
2170
2179
2170
2154
2157
2167
2150
2138
2157
2135
2144
2146
2128
2127
2140
2128
2124
2128
2128
2128
2128
2133
2119
2119
2128
2112
2121
2130
2115
2119
2128
2126
2119
2116
2112
2102
2112
2113
2101
2102
2115
2103
2094
2095
2090
2100
2108
2129
2135
2155
2162
2175
2198
2196
2182
2178
2158
2096
2059
2064
2039
2039
2037
2032
2029
2026
2030
2026
2011
2026
2000
1981
1865
1761
1759
1937
2343
3242
3746
2803
2201
1888
1771
1810
1909
1945
1936
1932
1947
1938
1937
1946
1941
1953
1942
1942
1941
1943
1949
1938
1930
1931
1923
1919
1909
1903
1883
1877
1887
1887
1893
1904
1909
1931
1967
1968
1993
2021
2022
2032
2036
2043
2037
2045
2022
2016
2029
2047
2023
2015
2023
2013
2021
2018
2013
2009
2006
2011
1997
1990
1999
1977
1984
2001
1980
1987
1985
1975
1971
1984
1983
1979
1966
1968
1967
1968
1975
1973
1957
1968
1962
1967
1951
1966
1966
1963
1966
1955
1967
1935
1939
1947
1960
1951
1958
1959
1953
1954
1968
2000
2007
2014
2031
2061
2074
2042
2027
2004
1978
1934
1909
1911
1903
1890
1899
1887
1880
1875
1875
1865
1865
1874
1852
1776
1627
1573
1610
1890
2436
3422
3025
2261
1855
1628
1650
1757
1795
1803
1789
1785
1776
1767
1776
1787
1791
1786
1791
1787
1776
1776
1781
1771
1757
1743
1726
1726
1739
1718
1713
1674
1728
1720
1724
1759
1774
1783
1807
1814
1841
1872
1875
1888
1907
1897
1901
1913
1912
1904
1891
1903
1891
1909
1905
1895
1893
1895
1886
1883
1898
1901
1887
1872
1885
1838
1883
1878
1871
1878
1895
1891
1871
1865
1875
1887
1886
1874
1872
1859
1875
1867
1872
1885
1859
1874
1884
1872
1856
1873
1885
1872
1867
1872
1882
1904
1915
1926
1935
1968
1989
1993
1989
1987
1962
1926
1898
1872
1867
1870
1846
1826
1838
1838
1853
1855
1850
1856
1851
1846
1744
1591
1597
1755
2113
2859
3558
2899
2212
1861
1660
1616
1709
1771
1781
1789
1790
1776
1785
1796
1792
1797
1797
1803
1794
1789
1786
1782
1778
1774
1776
1757
1727
1728
1733
1723
1696
1725
1722
1734
1757
1776
1788
1821
1859
1885
1904
1936
1937
1953
1961
1968
1968
1968
1959
1952
1955
1961
1956
1963
1973
1970
1942
1954
1942
1934
1938
1938
1942
1930
1933
1926
1936
1923
1909
1921
1929
1930
1926
1930
1921
1919
1925
1918
1906
1920
1920
1916
1919
1914
1927
1904
1914
1927
1952
1968
1972
1985
2019
2026
2016
2016
1996
1952
1911
1895
1879
1862
1870
1847
1851
1865
1863
1855
1850
1853
1859
1852
1796
1648
1584
1666
1930
2405
3249
3243
2416
2043
1762
1605
1659
1755
1776
1775
1759
1759
1763
1783
1767
1776
1781
1779
1790
1793
1786
1762
1759
1759
1751
1743
1744
1715
1702
1707
1699
1703
1720
1733
1728
1761
1791
1812
1851
1882
1891
1913
1936
1926
1938
1951
1949
1933
1936
1950
1941
1946
1945
1938
1936
1937
1923
1929
1934
1936
1918
1920
1921
1910
1917
1915
1914
1904
1919
1907
1910
1923
1919
1920
1914
1909
1906
1906
1905
1904
1901
1906
1900
1906
1916
1904
1910
1917
1903
1904
1907
1905
1901
1904
1898
1898
1899
1903
1901
1921
1959
1961
1975
2003
2030
2013
2000
1997
1958
1920
1881
1858
1855
1872
1856
1845
1852
1842
1840
1845
1847
1845
1849
1842
1711
1565
1555
1680
2031
2841
3504
2783
2055
1721
1598
1670
1771
1787
1789
1776
1773
1776
1791
1777
1776
1758
1829
1779
1797
1792
1779
1790
1786
1776
1777
1771
1749
1749
1762
1762
1755
1760
1766
1776
1798
1810
1820
1849
1872
1888
1902
1915
1915
1910
1921
1918
1919
1920
1922
1917
1926
1917
1909
1909
1921
1911
1910
1910
1905
1898
1904
1889
1882
1905
1904
1904
1904
1899
1895
1902
1909
1903
1886
1898
1905
1905
1925
1917
1906
1902
1902
1901
1906
1911
1902
1907
1904
1906
1904
1909
1907
1911
1904
1904
1895
1892
1910
1903
1904
1935
1949
1958
1979
2002
2019
2004
1995
1964
1947
1907
1866
1858
1867
1847
1847
1850
1847
1842
1844
1840
1833
1841
1843
1776
1616
1557
1579
1882
2397
3250
3201
2298
1879
1656
1581
1692
1762
1762
1761
1746
1755
1771
1753
1765
1776
1759
1762
1760
1754
1738
1735
1745
1767
1726
1716
1710
1701
1709
1687
1681
1701
1681
1701
1719
1729
1742
1765
1791
1805
1808
1818
1845
1852
1858
1847
1833
1851
1838
1838
1842
1840
1799
1835
1837
1824
1820
1813
1798
1802
1811
1792
1789
1792
1789
1782
1782
1781
1763
1755
1786
1765
1776
1786
1783
1777
1782
1767
1775
1765
1760
1761
1759
1760
1765
1753
1763
1776
1777
1806
1820
1823
1845
1879
1883
1892
1857
1818
1791
1762
1737
1727
1725
1753
1713
1708
1701
1699
1693
1706
1701
1712
1711
1599
1449
1451
1588
1924
2631
3321
2825
2110
1732
1527
1458
1552
1627
1642
1638
1623
1634
1659
1645
1635
1661
1661
1650
1650
1641
1646
1637
1638
1619
1615
1615
1594
1584
1571
1563
1566
1575
1587
1598
1614
1648
1657
1701
1745
1779
1806
1835
1846
1851
1856
1872
1874
1877
1889
1879
1889
1893
1883
1887
1895
1901
1916
1918
1916
1894
1911
1917
1895
1904
1904
1914
1925
1926
1915
1920
1935
1936
1926
1938
1941
1936
1941
1955
1959
1941
1936
1936
1955
1987
2007
2013
2034
2071
2087
2079
2075
2053
2006
1981
1959
1953
1957
1943
1946
1947
1937
1947
1964
1967
1968
1980
1985
1942
1813
1749
1776
2018
2441
3244
3809
2778
2212
1973
1808
1810
1893
1930
1934
1925
1933
1947
1945
1937
1945
1935
1943
1946
1957
1951
1942
1939
1923
1927
1929
1904
1888
1895
1887
1888
1885
1901
1901
1927
1949
1954
1988
2026
2061
2093
2127
2137
2157
2166
2160
2158
2163
2172
2160
2164
2162
2166
2159
2162
2161
2155
2157
2140
2182
2131
2127
2131
2131
2130
2129
2138
2127
2131
2129
2142
2127
2134
2146
2135
2133
2134
2142
2138
2143
2135
2141
2138
2133
2129
2128
2134
2129
2118
2130
2131
2154
2192
2202
2203
2239
2267
2247
2244
2229
2178
2129
2103
2093
2098
2087
2071
2053
2033
2046
2043
2043
2041
2034
2037
2013
1862
1775
1774
1961
2379
3195
3791
2799
2203
1931
1776
1841
1936
1953
1943
1947
1947
1936
1952
1944
1939
1951
1946
1954
1964
1957
1939
1943
1939
1935
1919
1915
1904
1901
1903
1902
1898
1902
1918
1905
1927
1951
1972
1999
2022
2032
2038
2062
2070
2068
2075
2065
2047
2053
2064
2054
2047
2045
2035
2031
2032
2034
2032
2017
2019
2002
2011
2013
2003
2007
2015
2010
2015
2011
2012
2008
2006
2017
1997
2010
2006
2003
1995
2000
1991
1990
1996
1981
1988
1998
1993
1993
2000
1995
1983
1991
1999
1985
1995
2037
2060
2064
2078
2098
2105
2099
2116
2055
2006
1986
1941
1948
1953
1934
2005
1922
1910
1920
1923
1911
1920
1923
1921
1853
1738
1629
1645
1878
2368
3274
3325
2463
1962
1715
1694
1792
1834
1831
1816
1811
1761
1810
1810
1823
1824
1817
1803
1798
1808
1795
1799
1817
1776
1782
1776
1769
1749
1758
1746
1733
1745
1744
1761
1776
1781
1786
1827
1850
1856
1885
1911
1915
1932
1937
1923
1907
1921
1925
1904
1881
1918
1904
1907
1932
1904
1888
1905
1904
1898
1898
1893
1879
1882
1872
1872
1887
1889
1870
1883
1895
1873
1886
1884
1862
1872
1887
1885
1877
1868
1875
1878
1875
1887
1884
1886
1887
1881
1883
1872
1856
1872
1921
1934
1936
1935
1969
1985
1978
1983
1961
1930
1905
1872
1852
1858
1845
1827
1826
1831
1835
1829
1836
1834
1840
1846
1822
1631
1567
1598
1808
2288
3053
3442
2655
2016
1792
1619
1618
1728
1774
1783
1759
1762
1779
1766
1756
1783
1806
1782
1785
1798
1785
1776
1787
1776
1775
1762
1752
1730
1728
1705
1703
1711
1723
1714
1738
1773
1777
1793
1849
1874
1895
1915
1930
1935
1969
1971
1954
1951
1968
1963
1966
1969
1950
1952
1954
1953
1934
1941
1947
1930
1931
1936
1927
1934
1936
1923
1941
1938
1936
1933
1939
1931
1920
1935
1938
1921
1934
1935
1926
1923
1929
1930
1933
1942
1936
1936
1930
1920
1938
1975
2000
2000
2033
2045
2029
2022
2023
1985
1943
1906
1888
1895
1897
1876
1877
1872
1885
1863
1856
1863
1869
1872
1856
1738
1626
1635
1825
2194
2869
3554
2767
2144
1893
1670
1646
1744
1791
1803
1807
1794
1790
1794
1795
1801
1793
1809
1794
1799
1808
1792
1776
1782
1774
1761
1762
1743
1734
1721
1729
1711
1714
1747
1751
1774
1805
1819
1843
1885
1918
1940
1958
1964
1962
1968
1968
1966
1959
1972
1956
1966
1978
1968
1969
1968
1962
1947
1941
1943
1941
1934
1927
1920
1915
1936
1929
1936
1931
1937
1930
1933
1936
1935
1927
1939
1925
1918
1937
1936
1921
1940
1936
1926
1920
1933
1922
1925
1936
1926
1931
1936
1916
1920
1947
1936
1953
1990
1999
1993
2024
2067
2042
2043
2032
1987
1966
1933
1909
1899
1902
1891
1882
1888
1883
1878
1878
1879
1875
1882
1872
1720
1614
1602
1723
2139
2843
3593
2864
2110
1813
1634
1649
1776
1792
1804
1794
1777
1776
1785
1783
1792
1792
1791
1769
1775
1780
1773
1771
1765
1751
1733
1727
1714
1707
1706
1690
1690
1691
1692
1712
1717
1749
1759
1776
1812
1811
1824
1845
1843
1828
1840
1842
1835
1834
1833
1815
1823
1830
1815
1809
1812
1805
1803
1795
1787
1779
1787
1785
1770
1759
1774
1776
1769
1781
1763
1766
1774
1763
1755
1751
1755
1748
1753
1751
1739
1747
1749
1746
1743
1758
1747
1751
1747
1751
1743
1744
1747
1734
1737
1728
1725
1734
1744
1731
1726
1737
1762
1781
1801
1808
1827
1851
1843
1823
1804
1778
1732
1697
1705
1706
1700
1681
1670
1675
1680
1683
1680
1695
1691
1691
1658
1515
1403
1410
1586
2017
2941
3207
2430
1858
1555
1489
1591
1669
1680
1667
1671
1689
1683
1683
1706
1712
1696
1706
1718
1713
1714
1727
1728
1727
1726
1713
1715
1728
1726
1711
1717
1723
1728
1747
1765
1774
1805
1850
1867
1869
1904
1861
1939
1955
1941
1936
1953
1952
1941
1955
1969
1966
1957
1973
1961
1961
1981
1965
1958
1969
1968
1967
1968
1973
1978
1982
1979
1973
1984
1987
1991
1997
1995
1994
2002
2005
2010
2000
2014
2011
2001
2010
2011
2011
2017
2025
2032
2017
2026
2016
2020
2034
2031
2021
2041
2038
2036
2043
2038
2041
2043
2047
2064
2063
2080
2103
2101
2130
2161
2171
2162
2181
2151
2108
2103
2064
2047
2058
2045
2033
2039
2034
2030
2041
2047
2045
2047
2059
1997
1851
1808
1850
2240
2625
3573
3569
2576
2215
1973
1823
1878
1977
1999
1997
1986
1974
1981
2000
1998
2003
2015
2000
1990
1999
1984
1983
1983
1969
1966
1961
1951
1930
1932
1925
1930
1934
1935
1947
1952
1979
1999
2017
2060
2064
2090
2122
2139
2134
2144
2130
2141
2143
2147
2142
2133
2142
2123
2119
2124
2113
2113
2109
2102
2089
2096
2091
2079
2069
2079
2068
2069
2075
2077
2062
2069
2070
2045
2065
2075
2066
2043
2060
2066
2081
2078
2061
2044
2063
2063
2046
2045
2047
2035
2039
2064
2038
2029
2038
2032
