1677
1683
1704
1724
1739
1755
1775
1790
1801
1803
1808
1810
1811
1816
1810
1813
1817
1811
1808
1803
1810
1806
1799
1808
1806
1806
1807
1806
1813
1813
1808
1808
1813
1815
1815
1829
1810
1808
1803
1791
1774
1766
1771
1757
1758
1763
1763
1755
1782
1795
1801
1830
1859
1882
1907
1933
1939
1965
1974
1985
1986
1983
1981
1973
1977
1982
1975
1977
1975
1968
1965
1956
1939
1935
1947
1941
1931
1936
1936
1923
1931
1936
1930
1936
1937
1936
1936
1950
1943
1937
1943
1947
1930
1936
1936
2000
1955
1942
1939
1936
1939
1927
1968
2007
2013
2017
2059
2076
2059
2047
2019
1979
1942
1913
1900
1895
1902
1874
1869
1880
1877
1872
1886
1885
1873
1873
1863
1742
1585
1555
1679
2045
2693
3669
2992
2247
1862
1639
1680
1776
1797
1802
1805
1788
1791
1808
1798
1796
1805
1798
1795
1808
1795
1782
1783
1781
1776
1786
1778
1766
1773
1763
1765
1761
1795
1791
1801
1805
1838
1857
1882
1904
1903
1921
1968
1943
1945
1949
1945
1941
1943
1946
1937
1936
1931
1921
1929
1933
1923
1920
1921
1918
1905
1918
1915
1906
1910
1916
1905
1910
1917
1913
1915
1926
1920
1913
1919
1918
1907
1915
1915
1901
1904
1915
1905
1914
1922
1907
1904
1904
1905
1932
1973
1982
1976
2011
2039
2027
2014
1990
1946
1909
1874
1872
1859
1856
1850
1840
1842
1843
1837
1840
1846
1831
1840
1838
1737
1555
1491
1594
1901
2485
3408
3029
2272
1851
1629
1616
1726
1759
1743
1737
1728
1728
1728
1726
1715
1725
1730
1715
1705
1713
1707
1653
1711
1697
1684
1681
1682
1662
1664
1675
1665
1673
1693
1703
1719
1733
1760
1773
1797
1793
1801
1826
1834
1825
1828
1834
1830
1825
1833
1833
1824
1825
1810
1809
1807
1809
1797
1797
1798
1789
1786
1795
1792
1792
1800
1792
1783
1799
1797
1792
1795
1808
1797
1802
1801
1803
1794
1796
1792
1795
1811
1808
1799
1808
1819
1811
1808
1808
1798
1807
1814
1801
1806
1822
1813
1809
1810
1830
1820
1817
1850
1868
1872
1886
1905
1941
1949
1931
1905
1875
1854
1811
1800
1818
1805
1797
1806
1798
1795
1804
1791
1784
1799
1813
1797
1648
1519
1487
1626
2083
2829
3475
2789
2062
1746
1597
1638
1748
1771
1753
1750
1742
1744
1742
1750
1764
1757
1753
1770
1762
1757
1758
1751
1747
1761
1760
1743
1739
1753
1746
1739
1747
1746
1773
1778
1802
1815
1845
1868
1858
1894
1910
1915
1935
1934
1919
1913
1931
1935
1921
1926
1920
1920
1926
1915
1913
1917
1926
1920
1918
1929
1920
1919
1931
1930
1915
1922
1941
1943
1931
1933
1927
1936
1939
1949
1936
1938
1952
1938
1941
1938
1937
1947
1959
1951
1938
1949
1951
1945
1949
1953
1959
1951
1958
1968
1985
2006
2000
2009
2065
2082
2077
2080
2073
2011
1982
1950
1950
1942
1938
1939
1953
1942
1946
1934
1939
1936
1936
1942
1895
1741
1659
1715
2019
2445
3284
3577
2606
2159
1946
1747
1734
1840
1872
1883
1878
1873
1879
1897
1891
1879
1878
1882
1889
1904
1875
1877
1873
1851
1851
1856
1856
1838
1831
1839
1815
1835
1861
1872
1859
1888
1918
1932
1965
1999
2019
2034
2047
2065
2087
2097
2095
2082
2089
2096
2095
2087
2095
2087
2078
2089
2084
2069
2065
2046
2064
2079
2064
2061
2067
2073
2070
2064
2064
2053
2066
2059
2058
2060
2070
2064
2057
2065
2065
2065
2006
2060
2043
2046
2065
2079
2119
2137
2128
2159
2173
2113
2152
2138
2113
2061
2034
2069
2007
2018
2010
1986
1992
1994
1987
1994
1986
1987
2045
1978
1838
1707
1712
1930
2384
3147
3821
2987
2266
1995
1793
1726
1839
1897
1889
1882
1894
1875
1873
1885
1874
1873
1877
1877
1867
1861
1859
1846
1847
1846
1817
1814
1801
1798
1798
1792
1791
1783
1792
1803
1830
1835
1904
1910
1947
1986
1999
2003
1999
2036
2033
2043
2045
2027
2032
2028
2019
2023
2032
2022
2022
2032
2018
2003
2005
1985
1971
1983
1983
1979
1990
1990
1985
1977
1984
1979
1982
1984
1984
1979
1981
1984
1975
1969
1977
1968
1979
1984
1974
1975
1978
1979
1979
2018
2033
2021
2047
2093
2077
2068
2065
2029
1984
1966
1937
1920
1920
1904
1906
1904
1909
1903
1909
1911
1899
1903
1911
1835
1664
1601
1689
1998
2519
3453
3294
2445
2007
1776
1650
1745
1821
1826
1819
1815
1815
1821
1828
1808
1823
1817
1811
1808
1841
1811
1803
1808
1798
1786
1791
1777
1763
1759
1766
1759
1765
1779
1790
1808
1837
1856
1871
1900
1904
1924
1952
1965
1958
1962
1968
1965
1959
1963
1954
1946
1954
1957
1949
1951
1945
1937
1936
1933
1920
1920
1933
1920
1920
1921
1917
1919
1925
1922
1927
1929
1926
1930
1924
1946
1938
1921
1938
1933
1973
1907
1930
1929
1941
1910
1926
1921
1937
1936
1936
1935
1933
1921
1931
1952
1985
2010
2002
2031
2064
2062
2026
2004
1975
1935
1890
1882
1886
1876
1873
1870
1850
1857
1858
1858
1855
1857
1849
1836
1744
1569
1518
1625
1955
2547
3564
2991
2223
1808
1613
1648
1763
1789
1771
1750
1759
1767
1759
1764
1756
1759
1758
1767
1755
1744
1761
1746
1745
1744
1728
1718
1712
1712
1707
1703
1710
1705
1721
1734
1745
1771
1798
1808
1827
1843
1855
1870
1863
1867
1859
1870
1866
1857
1856
1863
1857
1847
1856
1849
1845
1856
1842
1840
1835
1841
1792
1830
1835
1825
1831
1837
1818
1826
1842
1838
1829
1827
1829
1823
1837
1838
1834
1840
1841
1827
1826
1833
1837
1823
1837
1845
1839
1834
1830
1831
1822
1840
1828
1840
1842
1840
1825
1840
1845
1839
1851
1887
1904
1907
1911
1936
1969
1968
1947
1920
1888
1857
1826
1824
1831
1820
1814
1807
1803
1805
1821
1819
1823
1815
1825
1804
1639
1530
1513
1711
2145
2911
3358
2573
2009
1719
1602
1705
1782
1781
1778
1765
1767
1765
1757
1811
1779
1779
1779
1783
1779
1776
1782
1792
1777
1770
1776
1760
1753
1769
1748
1766
1778
1773
1783
1802
1822
1839
1870
1887
1903
1909
1929
1939
1954
1953
1945
1943
1955
1957
1955
1947
1955
1947
1938
1947
1930
1941
1944
1922
1920
1930
1919
1911
1919
1920
1925
1920
1921
1922
1923
1934
1930
1924
1955
1934
1930
1931
1934
1934
1938
1936
1934
1935
1936
1936
1933
1937
1938
1936
1927
1936
1924
1925
1936
1931
1922
1938
1927
1919
1926
1936
1920
1927
1926
1917
1942
1978
1989
1984
2017
2057
2043
2035
2011
1982
1950
1911
1902
1903
1899
1900
1902
1889
1887
1888
1888
1882
1893
1893
1858
1737
1607
1584
1730
2087
2751
3485
2754
2171
1846
1678
1723
1807
1817
1825
1818
1801
1808
1815
1808
1808
1820
1815
1808
1820
1812
1813
1808
1798
1786
1797
1788
1777
1777
1776
1760
1776
1793
1807
1820
1841
1846
1866
1893
1935
1925
1934
1945
1950
1967
1963
2006
1950
1964
1971
1971
1955
1953
1918
1952
1936
1935
1937
1937
1920
1939
1936
1934
1935
1931
1935
1930
1931
1936
1937
1934
1941
1937
1940
1950
1951
1941
1940
1943
1953
1952
1948
1946
1957
1956
1949
1946
1959
1953
1954
1968
1955
1942
1963
1950
1962
1983
2005
2013
2019
2058
2070
2066
2037
2035
2027
2003
1971
1950
1937
1941
1925
1931
1938
1933
1938
1943
1936
1936
1955
1905
1733
1649
1714
1959
2387
3358
3427
2602
2151
1887
1714
1712
1819
1863
1865
1853
1846
1851
1847
1846
1857
1866
1859
1856
1872
1851
1840
1842
1841
1840
1824
1817
1798
1791
1793
1742
1792
1809
1809
1824
1853
1872
1905
1933
1958
1984
2013
2032
2029
2032
2047
2044
2029
2043
2063
2047
2037
2032
2035
2030
2023
2029
2031
2035
2017
1994
2006
2003
2007
2015
1996
1986
2000
2007
2010
2010
2018
2006
2016
2017
2002
2004
2005
2000
2000
2003
2020
2023
1998
2000
2003
1999
2029
2054
2067
2064
2074
2111
2112
2098
2096
2065
2036
1985
1959
1963
1961
1955
1955
1946
1947
1936
1937
1938
1941
1941
1940
1873
1727
1627
1697
2045
2500
3355
3530
2572
2112
1883
1707
1719
1814
1853
1840
1841
1840
1840
1840
1846
1840
1844
1836
1836
1814
1824
1835
1815
1799
1799
1782
1772
1778
1771
1749
1751
1759
1762
1781
1763
1815
1839
1867
1898
1929
1951
1968
1978
1994
2007
2007
2007
1995
1975
1986
1987
1991
1995
1997
1975
1979
1970
1963
1966
1968
1965
1954
1962
1957
1959
1953
1967
1961
1965
1971
1965
1967
1975
1976
1968
1968
1961
1950
1963
1958
1946
1948
1955
1965
1954
1955
1948
1947
1955
1988
2018
2031
2026
2043
2073
2059
2051
2023
1990
1951
1917
1914
1920
1906
1901
1904
1889
1877
1885
1889
1893
1903
1888
1872
1730
1605
1591
1710
2150
2859
3664
2980
2174
1839
1654
1660
1776
1830
1808
1790
1794
1797
1786
1791
1808
1798
1803
1808
1797
1800
1806
1798
1797
1791
1782
1765
1751
1765
1747
1742
1757
1758
1776
1792
1809
1836
1853
1873
1889
1915
1931
1933
1933
1940
1936
1943
1949
1936
1936
1936
1945
1935
1923
1927
1921
1920
1918
1907
1904
1909
1913
1899
1906
1904
1902
1903
1910
1904
1903
1909
1913
1910
1911
1898
1890
1908
1904
1899
1905
1869
1910
1903
1943
1905
1903
1904
1909
1904
1904
1931
1963
1984
1989
2003
2046
2035
2004
1986
1945
1916
1881
1878
1879
1878
1872
1869
1855
1847
1859
1844
1842
1856
1857
1848
1710
1581
1548
1638
2035
2697
3516
2947
2141
1792
1629
1663
1776
1791
1778
1775
1775
1773
1758
1770
1769
1775
1771
1771
1759
1759
1757
1751
1741
1735
1731
1719
1712
1703
1693
1695
1701
1703
1709
1731
1744
1757
1790
1803
1829
1849
1854
1872
1872
1881
1866
1869
1872
1865
1864
1866
1852
1855
1855
1856
1849
1855
1847
1840
1840
1838
1827
1822
1822
1811
1818
1823
1819
1831
1835
1840
1823
1823
1826
1824
1826
1827
1823
1826
1822
1818
1840
1829
1830
1831
1834
1835
1829
1827
1834
1817
1818
1821
1856
1874
1903
1898
1905
1936
1942
1930
1915
1879
1829
1793
1793
1794
1790
1787
1759
1763
1791
1776
1767
1759
1755
1759
1760
1654
1491
1450
1570
1903
2658
3327
2742
2099
1712
1523
1542
1657
1709
1696
1681
1694
1677
1674
1680
1691
1687
1699
1682
1667
1677
1676
1670
1663
1662
1648
1634
1642
1634
1629
1635
1631
1633
1655
1666
1686
1707
1743
1744
1758
1801
1823
1844
1855
1854
1847
1859
1871
1857
1851
1872
1866
1866
1871
1872
1860
1869
1880
1873
1879
1872
1870
1877
1893
1887
1887
1904
1900
1897
1906
1920
1914
1921
1915
1915
1920
1927
1926
1939
1942
1938
1939
1957
1946
1940
1936
1940
1968
2007
2015
2011
2034
2081
2081
2082
2084
2070
1999
1974
1967
1966
1957
1954
1957
1959
1958
1947
1940
1955
1955
1963
1969
1867
1712
1679
1805
2189
2765
3663
3258
2394
2072
1856
1730
1821
1895
1906
1909
1902
1904
1905
1909
1904
1911
1919
1918
1904
1904
1904
1902
1904
1888
1870
1857
1861
1849
1838
1840
1845
1843
1856
1858
1875
1906
1959
1984
1995
2026
2047
2080
2110
2117
2119
2119
2115
2111
2127
2127
2112
2114
2114
2112
2106
2100
2085
2090
2091
2081
2064
2062
2059
2064
2066
2068
2069
2075
2071
2056
2047
2077
2065
2061
2057
2062
2066
2065
2060
2043
2058
2061
2051
2077
2111
2112
2125
2155
2173
2165
2145
2129
2113
2071
2027
2000
2007
2010
1989
1985
1986
1985
1983
1991
1980
1974
1983
1971
1872
1723
1702
1841
2186
2781
3749
3137
2418
2073
1818
1729
1801
1870
1881
1891
1872
1866
1906
1879
1885
1881
1871
1867
1873
1936
1859
1856
1850
1808
1822
1824
1808
1795
1789
1780
1772
1778
1783
1789
1819
1858
1881
1913
1944
1961
1982
2007
2017
2031
2037
2029
2015
2014
2029
2037
2029
2021
2006
2013
2012
2000
2000
1999
1994
1986
1973
1968
1968
1959
1969
1967
1968
1970
1963
1959
1970
1967
1959
1969
1961
1960
1978
1973
1968
1959
1968
1968
1965
1968
1966
1954
1965
1963
1949
1964
1963
1968
1989
2023
2017
2032
2059
2074
2070
2064
2031
1990
1957
1932
1929
1925
1921
1906
1907
1921
1898
1899
1903
1900
1899
1910
1881
1744
1634
1609
1783
2174
2895
3623
2771
2178
1878
1680
1705
1808
1841
1835
1837
1825
1834
1847
1837
1831
1839
1843
1837
1840
1830
1815
1823
1824
1808
1808
1803
1790
1795
1787
1773
1776
1792
1803
1807
1831
1853
1874
1904
1920
1935
1952
1965
1969
1978
1969
1962
1959
1969
1968
1968
1966
1965
1953
1963
1973
1953
1949
1957
1940
1938
1942
1926
1958
1921
1923
1819
1919
1926
1920
1929
1922
1917
1920
1935
1920
1913
1920
1914
1918
1915
1913
1920
1915
1915
1918
1907
1925
1921
1908
1915
1917
1913
1917
1915
1909
1914
1926
1925
1920
1906
1904
1915
1917
1918
1910
1915
1918
1905
1908
1922
1930
1949
1968
1968
1983
2017
2019
2006
2000
1968
1927
1891
1883
1881
1893
1885
1868
1859
1860
1858
1867
1862
1870
1866
1866
1785
1620
1562
1602
1863
2393
3369
2945
2252
1866
1643
1677
1792
1828
1815
1809
1819
1807
1808
1811
1808
1809
1814
1807
1804
1802
1807
1795
1803
1806
1793
1780
1786
1778
1765
1769
1774
1774
1776
1791
1802
1815
1844
1859
1882
1898
1900
1904
1919
1921
1917
1917
1906
1911
1923
1914
1898
1902
1904
1902
1898
1898
1885
1877
1889
1878
1870
1863
1871
1870
1867
1878
1874
1872
1885
1881
1872
1881
1888
1882
1879
1865
1873
1867
1872
1874
1878
1885
1874
1872
1892
1876
1872
1877
1879
1877
1883
1881
1869
1873
1883
1884
1875
1881
1877
1872
1872
1881
1885
1886
1875
1862
1878
1873
1874
1872
1872
1875
1874
1895
1911
1914
1934
1968
1979
1989
1978
1963
1933
1914
1874
1859
1859
1859
1862
1850
1851
1856
1840
1842
1851
1842
1862
1808
1664
1595
1621
1837
2256
3039
3198
2454
2037
1808
1613
1645
1739
1782
1789
1785
1778
1793
1788
1791
1791
1798
1802
1798
1803
1793
1799
1792
1781
1781
1778
1765
1749
1751
1747
1744
1744
1758
1769
1747
1808
1829
1848
1886
1893
1907
1943
1959
1967
1971
1974
1975
1968
1968
1974
1971
1979
1968
1962
1969
1970
1961
1968
1973
1949
1952
1947
1946
1942
1946
1937
1936
1950
1942
1936
1951
1956
1955
1952
1961
1949
1951
1963
1949
1951
1967
1977
1970
1974
1973
1971
1969
1982
1978
1973
1968
1968
1975
1985
1993
2006
2026
2030
2033
2064
2083
2073
2064
2032
1955
1947
1905
1946
1939
1940
1930
1930
1925
1927
1923
1926
1927
1919
1910
1839
1686
1638
1723
2021
2531
3547
3152
2387
2006
1789
1664
1744
1835
1840
1827
1833
1837
1826
1839
1839
1838
1833
1830
1833
1824
1840
1829
1814
1807
1793
1787
1779
1774
1757
1762
1770
1774
1775
1795
1811
1834
1865
1878
1901
1925
1954
1962
1961
1973
1964
1968
1966
1963
1961
1962
1957
1953
1969
1967
1948
1947
1951
1952
1936
1942
1921
1918
1925
1922
1907
1914
1915
1904
1911
1918
1909
1904
1915
1913
1904
1915
1907
1909
1910
1908
1902
1909
1908
1910
1904
1915
1904
1906
1911
1911
1894
1901
1905
1903
1911
1904
1902
1894
1906
1927
1962
1983
1979
2002
2036
2017
1997
1984
1953
1910
1887
1877
1866
1862
1866
1856
1850
1855
1851
1854
1855
1853
1853
1840
1660
1561
1551
1712
2206
3019
3451
2637
1980
1733
1626
1704
1811
1814
1789
1794
1806
1801
1805
1777
1831
1810
1811
1808
1805
1805
1805
1793
1793
1792
1779
1781
1777
1769
1762
1763
1767
1775
1786
1798
1822
1846
1869
1876
1899
1917
1914
1935
1946
1937
1936
1937
1938
1935
1933
1936
1937
1930
1939
1927
1929
1935
1920
1917
1923
1919
1912
1908
1916
1913
1918
1920
1920
1933
1923
1922
1920
1922
1918
1906
1922
1921
1929
1920
1925
1930
1923
1931
1911
1904
1919
1921
1919
1914
1920
1913
1918
1919
1909
1918
1918
1893
1895
1905
1903
1908
1921
1936
1946
1938
1970
1995
2005
2005
1989
1948
1923
1897
1851
1856
1859
1842
1840
1840
1831
1829
1834
1809
1826
1834
1810
1710
1563
1519
1609
1906
2597
3327
2847
2186
1805
1601
1569
1662
1729
1739
1712
1712
1721
1713
1712
1717
1729
1714
1711
1724
1711
1702
1707
1692
1682
1676
1664
1662
1664
1655
1637
1633
1651
1705
1665
1691
1714
1726
1752
1788
1794
1815
1855
1834
1844
1843
1845
1856
1867
1850
1831
1840
1842
1840
1846
1841
1838
1841
1840
1829
1821
1829
1818
1823
1827
1825
1810
1820
1829
1827
1823
1833
1810
1823
1826
1834
1838
1840
1830
1824
1831
1841
1840
1843
1840
1835
1827
1840
1859
1889
1906
1920
1919
1949
1958
1953
1956
1942
1904
1873
1840
1833
1843
1844
1834
1840
1828
1827
1836
1838
1827
1829
1840
1806
1654
1579
1613
1827
2226
2997
3403
2608
2037
1831
1609
1633
1745
1775
1777
1777
1780
1779
1792
1795
1791
1818
1834
1792
1786
1789
1769
1766
1774
1766
1738
1740
1728
1712
1712
1714
1712
1722
1733
1746
1762
1807
1834
1859
1899
1918
1938
1959
1976
1967
1968
1975
1979
1974
1986
1974
1972
1977
1968
1978
1975
1969
1968
1962
1953
1955
1959
1953
1936
1934
1947
1936
1937
1955
1953
1955
1961
1962
1951
1962
1965
1959
1951
1962
1968
1974
1973
1959
1963
1969
1969
1968
1969
1967
1979
2009
2036
2042
2069
2097
2096
2085
2089
2045
2005
1984
1967
1967
1966
1959
1947
1953
1954
1963
1934
1952
1900
1966
1978
1896
1744
1691
1778
2066
2569
3482
3282
2465
2090
1863
1741
1833
1872
1918
1922
1926
1933
1925
1936
1933
1936
1947
1950
1946
1948
1947
1936
1947
1945
1936
1923
1931
1898
1907
1915
1909
1919
1933
1941
1969
1994
2005
2032
2064
2094
2109
2115
2134
2128
2126
2137
2139
2131
2142
2137
2135
2139
2143
2129
2113
2127
2127
2119
2116
2112
2111
2108
2109
2096
2096
2106
2112
2092
2112
2099
2106
2110
2109
2102
2112
2108
2103
2112
2111
2106
2107
2112
2113
2108
2110
2112
2111
2112
2109
2102
2117
2114
2102
2118
2106
2101
2098
2106
2103
2096
2123
2147
2151
2163
2193
2209
2192
2173
2155
2113
2094
2039
2032
2045
2036
2030
2033
2031
2013
2017
2030
2026
2019
2023
1984
1821
1734
1712
1841
2330
3166
3668
2805
2139
1857
1761
1859
1936
1930
1935
1920
1917
1920
1921
1920
1933
1919
1918
1916
1909
1899
1903
1910
1903
1893
1890
1882
1872
1875
1872
1857
1863
1872
1872
1893
1918
1924
1938
1968
1977
1994
1995
2003
2001
2005
2012
2015
2005
2010
2037
1979
1997
1996
1983
1990
1978
1974
1970
1977
1968
1961
1963
1965
1954
1953
1955
1950
1950
1941
1949
1947
1952
1942
1951
1963
1951
1943
1951
1945
1943
1941
1943
1936
1943
1947
1935
1936
1939
1936
1931
1936
1927
1915
1929
1923
1932
1929
1918
1902
1904
1915
1936
1961
1957
1956
1986
2015
2005
1992
1970
1933
1887
1870
1859
1856
1850
1845
1839
1835
1849
1827
1819
1823
1824
1806
1795
1677
1548
1534
1680
2043
2885
3389
2647
2077
1754
1579
1600
1712
1759
1750
1749
1746
1745
1751
1747
1744
1750
1751
1744
1740
1745
1733
1725
1723
1724
1710
1712
1696
1686
1680
1680
1680
1691
1702
1721
1735
1759
1779
1808
1818
1840
1859
1871
1876
1887
1889
1892
1878
1883
1877
1883
1875
1875
1880
1878
1872
1879
1875
1872
1858
1821
1857
1865
1878
1865
1862
1864
1855
1871
1872
1885
1871
1872
1881
1863
1872
1872
1867
1873
1875
1866
1887
1886
1875
1872
1879
1879
1883
1875
1873
1888
1922
1938
1935
1947
1981
1986
1981
1981
1959
1917
1879
1857
1856
1866
1855
1840
1841
1840
1846
1850
1863
1840
1853
1861
1811
1616
1574
1621
1858
2395
3246
3290
2496
1987
1769
1599
1634
1736
1773
1776
1773
1763
1770
1776
1778
1778
1782
1771
1775
1775
1764
1747
1747
1744
1737
1727
1719
1699
1693
1699
1683
1701
1716
1726
1744
1766
1779
1810
1843
1872
1893
1915
1935
1931
1922
1941
1943
1936
1951
1944
1945
1951
1955
1947
1935
1934
1929
1936
1933
1920
1911
1915
1911
1911
1919
1913
1911
1922
1915
1910
1913
1923
1919
1921
1943
1942
1942
1946
1937
1937
1937
1937
1936
1943
1946
1935
1936
1939
1934
1923
1936
1923
1915
1945
1979
1985
1987
2017
2042
2035
2039
2010
1984
1948
1904
1899
1903
1902
1888
1887
1895
1891
1889
1889
1886
1878
1885
1885
1778
1616
1584
1670
1978
2717
3558
3023
2300
1863
1663
1651
1760
1808
1818
1819
1811
1813
1807
1811
1826
1843
1837
1826
1823
1819
1815
1808
1813
1798
1794
1797
1777
1778
1776
1771
1781
1789
1792
1806
1806
1831
1851
1879
1904
1909
1921
2002
1942
1939
1946
1949
1938
1940
1936
1936
1936
1927
1925
1930
1929
1920
1920
1921
1905
1915
1915
1904
1907
1904
1897
1893
1897
1904
1904
1903
1905
1907
1904
1904
1899
1905
1915
1919
1902
1899
1904
1897
1899
1903
1897
1899
1908
1903
1902
1905
1902
1903
1910
1909
1891
1896
1902
1904
1904
1916
1904
1904
1914
1909
1905
1946
1965
1953
1969
2022
2024
2002
1991
1964
1936
1887
1873
1870
1884
1869
1851
1868
1865
1849
1852
1866
1854
1863
1856
1774
1616
1559
1609
1868
2391
3383
2993
2275
1882
1648
1657
1769
1810
1810
1808
1808
1808
1813
1803
1797
1809
1819
1808
1803
1808
1809
1802
1808
1808
1797
1793
1786
1775
1775
1779
1776
1787
1789
1811
1823
1841
1867
1878
1894
1901
1915
1921
1939
1937
1940
1942
1937
1936
1949
1939
1927
1938
1933
1936
1921
1932
1923
1927
1918
1904
1906
1907
1904
1886
1887
1901
1904
1905
1910
1906
1907
1911
1904
1904
1906
1904
1902
1906
1916
1907
1906
1907
1904
1901
1908
1897
1890
1909
1900
1890
1888
1891
1891
1905
1902
1898
1898
1904
1899
1893
1897
1895
1904
1893
1895
1917
1938
1942
1939
1967
1996
1979
1994
1968
1932
1893
1876
1871
1854
1856
1845
1835
1840
1853
1834
1831
1839
1845
1841
1817
1667
1578
1586
1775
2161
2903
3254
2500
2031
1792
1600
1653
1758
1794
1789
1784
1774
1772
1773
1783
1787
1793
1795
1783
1798
1797
1775
1766
1774
1765
1753
1760
1744
1722
1712
1726
1725
1731
1763
1776
1790
1813
1842
1856
1869
1894
1927
1919
1936
1932
1947
1968
1943
1942
1941
1938
1943
1944
1940
1936
1938
1938
1922
1934
1936
1929
1934
1936
1915
1923
1934
1934
1921
1919
1930
1921
1930
1931
1922
1911
1929
1926
1930
1922
1919
1910
1923
1926
1926
1931
1935
1911
1914
1925
1927
1936
1951
1978
1990
2001
2020
2032
2033
2026
2002
1968
1936
1895
1889
1894
1879
1873
1883
1874
1855
1871
1872
1856
1872
1871
1841
1642
1607
1629
1839
2265
3139
3461
2642
2119
1847
1654
1631
1727
1788
1803
1789
1789
1808
1799
1839
1795
1813
1805
1802
1806
1797
1791
1785
1779
1761
1767
1759
1739
1729
1712
1710
1714
1731
1734
1749
1776
1808
1828
1853
1882
1909
1946
1957
1952
1968
1981
1968
1981
1983
1965
1951
1977
1968
1969
1984
1975
1966
1965
1977
1962
1947
1913
1937
1938
1941
1947
1951
2000
1968
1954
1949
1943
2023
1957
1970
1953
1948
1953
1946
1946
1968
1966
1951
1965
1960
1955
1962
1970
1968
1963
1965
1953
1959
1975
1989
2006
2013
2023
2034
2064
2055
2047
2053
2005
1968
1933
1936
1936
1931
1929
1922
1909
1917
1920
1915
1931
1943
1930
1906
1786
1647
1639
1808
2182
3039
3658
2843
2231
1899
1712
1697
1798
1856
1849
1841
1854
1856
1849
1855
1855
1859
1863
1863
1845
1838
1861
1842
1837
1840
1825
1834
1827
1807
1808
1806
1825
1823
1834
1850
1855
1882
1913
1936
1954
1971
1988
1994
2005
2013
2013
2013
2027
2007
2001
2007
2003
2013
2010
1999
1995
1995
1995
1986
1987
1986
1972
1975
1975
1973
1977
1968
1973
1971
1969
1947
1973
1969
1978
1965
1968
1967
1969
1967
1968
1965
1964
1969
1966
1954
1953
1966
1951
1959
1968
1953
1957
1958
1957
1958
1961
1969
1966
1963
1957
1953
1970
1959
1951
1979
2014
2015
2026
2067
2085
2057
2058
2022
1984
1952
1930
1919
1923
1927
1919
1909
1904
1906
1904
1904
1903
1903
1907
1873
1723
1617
1599
1776
2185
2970
3499
2587
2047
1772
1663
1776
1858
1858
1852
1849
1840
1840
1855
1856
1855
1861
1865
1841
1849
1857
1853
1855
1847
1834
1822
1817
1819
1808
1817
1822
1819
1835
1844
1857
1872
1894
1907
1926
1931
1943
1954
1969
1974
1968
1970
1981
1967
1969
1977
1963
1965
1977
1966
1959
1961
1955
1939
1950
1943
1938
1947
1939
1945
1936
1943
1971
1939
1939
1954
1927
1936
1937
1933
1945
1950
1941
1936
1937
1934
1930
1943
1930
1937
1939
1943
1933
1942
1941
1927
1923
1931
1930
1936
1933
1922
1918
1936
1931
1931
1921
1935
1936
1924
1936
1952
1974
1983
1981
2016
2047
2029
2006
1979
1940
1903
1891
1890
1883
1872
1871
1866
1854
1857
1850
1856
1863
1871
1863
1787
1615
1530
1591
1828
2421
3280
3043
2320
1904
1671
1620
1679
1787
1798
1781
1772
1787
1778
1792
1805
1794
1776
1778
1783
1775
1775
1782
1773
1773
1773
1744
1744
1758
1741
1738
1735
1733
1744
1766
1789
1806
1830
1859
1862
1875
1898
1905
1926
1937
1931
1929
1931
1930
1920
1931
1943
1942
1943
1933
1929
1920
1920
1918
1919
1922
1921
1904
1904
1920
1904
1911
1904
1904
1914
1913
1907
1903
1911
1916
1909
1907
1911
1909
1913
1930
1913
1918
1922
1911
1899
1914
1919
1910
1909
1925
1920
1917
1914
1905
1908
1913
1911
1933
1952
1962
1964
1987
2007
2015
2013
2014
1977
1931
1914
1899
1903
1903
1886
1878
1879
1879
1872
1813
1867
1874
1873
1874
1767
1601
1616
1753
2086
2800
3553
2951
2271
1920
1727
1640
1723
1805
1808
1808
1812
1815
1819
1824
1819
1821
1827
1823
1815
1829
1814
1808
1811
1801
1783
1788
1771
1761
1763
1761
1742
1758
1799
1779
1785
1822
1845
1872
1889
1906
1929
1963
1984
1984
1968
1984
1983
1991
1995
1995
1994
1995
1985
1986
1975
1979
1970
1967
1979
1964
1957
1958
1959
1953
1942
1938
1946
1963
1953
1938
1947
1946
1936
1946
1957
1947
1946
1957
1956
1936
1933
1938
1946
1955
1951
1941
1939
1953
1939
1933
1940
1943
1963
1987
1987
2001
2030
2069
2047
2039
2032
1988
1954
1921
1919
1905
1918
1904
1905
1899
1887
1895
1885
1889
1894
1898
1882
1770
1638
1613
1734
2071
2701
3619
2970
2274
1920
1692
1728
1739
1799
1806
1795
1791
1795
1805
1811
1805
1821
1815
1806
1807
1811
1802
1808
1799
1791
1781
1775
1776
1765
1761
1770
1755
1756
1778
1790
1805
1827
1845
1879
1902
1914
1935
1945
1962
1967
1968
1977
1971
1962
1970
1968
1964
1967
1966
1956
1946
1945
1946
1946
1938
1926
1923
1929
1931
1925
1934
1933
1925
1931
1922
1936
1930
1936
1927
1933
1934
1923
1930
1939
1936
1929
1936
1936
1926
1925
1936
1934
1937
1936
1925
1930
1935
1924
1920
1930
1936
1924
1933
1927
1921
1920
1935
1927
1958
1994
1997
1991
2028
2060
2031
2023
2017
1971
1927
1905
1894
1897
1894
1890
1873
1895
1875
1874
1877
1878
1875
1874
1854
1717
1597
1575
1709
2073
2927
3483
2722
2115
1755
1638
1711
1811
1827
1809
1808
1806
1808
1820
1818
1810
1811
1811
1811
1810
1808
1806
1808
1809
1797
1792
1783
1783
1775
1773
1773
1776
1787
1801
1818
1834
1867
1868
1887
1903
1917
1909
1930
1939
1934
1934
1935
1926
1936
1938
1930
1925
1924
1931
1920
1926
1925
1910
1902
1910
1904
1904
1914
1904
1897
1903
1903
1903
1904
1902
1898
1904
1903
1899
1895
1910
1903
1910
1904
1899
1904
1912
1904
1904
1907
1909
1903
1904
1916
1911
1905
1909
1899
1904
1908
1906
1904
1906
1906
1895
1904
1903
1915
1952
1970
1980
1981
2016
2002
1995
1985
1941
1901
1869
1863
1867
1859
1858
1840
1842
1849
1841
1834
1845
1838
1830
1812
1701
1552
1523
1658
1979
2767
3404
2736
2113
1751
1581
1619
1723
1776
1754
1756
1757
1743
1744
1753
1744
1751
1744
1734
1734
1743
1739
1728
1729
1715
1709
1711
1705
1701
1691
1680
1680
1692
1715
1727
1739
1757
1786
1802
1822
1841
1847
1863
1925
1868
1859
1806
1874
1877
1892
1892
1878
1868
1872
1869
1908
1881
1866
1862
1840
1851
1857
1866
1903
1863
1865
1855
1853
1866
1872
1872
1875
1882
1879
1885
1878
1889
1867
1869
1887
1883
1874
1889
1889
1878
1887
1879
1877
1890
1907
1895
1883
1899
1897
1901
1920
1929
1946
1955
1980
2006
2007
2006
2001
1967
1936
1901
1901
1903
1883
1874
1881
1877
1873
1872
1877
1879
1882
1882
1877
1776
1643
1616
1742
2127
2704
3536
3089
2274
1942
1749
1634
1729
1811
1785
1823
1808
1823
1826
1817
1838
1839
1823
1830
1834
1817
1808
1801
1802
1794
1793
1787
1771
1763
1761
1760
1776
1782
1770
1792
1830
1830
1854
1897
1917
1939
1974
1989
1997
2018
2031
2021
2026
2027
2017
2031
2030
2025
2026
2029
2019
2019
2030
2011
2007
2000
1990
2000
1998
2002
1990
1993
2001
2000
1984
2000
1990
1985
1994
2001
1994
1993
1991
1984
1983
1999
1986
1994
1994
1987
1984
1993
1904
1985
1990
1983
1999
2026
2032
2035
2069
2099
2096
2083
2077
2045
2007
1973
2016
1959
1954
1949
1942
1924
1936
1933
1930
1933
1935
1942
1946
1874
1711
1661
1744
2023
2529
3454
3248
2457
2068
1840
1676
1744
1835
1856
1855
1853
1840
1840
1858
1856
1856
1857
1856
1854
1856
1853
1842
1839
1835
1813
1808
1808
1792
1791
1790
1783
1799
1808
1826
1839
1854
1881
1901
1926
1956
1967
1981
1997
2000
2003
2011
2003
1994
1999
2003
1998
2000
2000
1984
1991
1989
1985
1968
1970
1967
1959
1953
1951
1942
1946
1958
1945
1939
1953
1948
1947
1951
1962
1958
1958
1941
1940
1937
1955
1952
1950
1953
1954
1946
1953
1949
1954
1958
1951
1949
1946
1949
1946
1946
1946
1939
1937
1936
1938
1938
1969
1990
1989
2000
2029
2062
2053
2035
2010
1980
1952
1898
1887
1904
1904
1883
1875
1872
1871
1872
1873
1872
1868
1873
1862
1742
1601
1554
1623
1958
2570
3432
3024
2191
1821
1616
1639
1751
1791
1792
1746
1767
1772
1776
1760
1765
1776
1770
1770
1779
1755
1744
1760
1756
1744
1738
1728
1712
1708
1705
1695
1698
1718
1712
1727
1742
1758
1776
1794
1808
1815
1831
1840
1843
1840
1840
1840
1838
1842
1826
1831
1839
1821
1823
1814
1821
1813
1808
1799
1787
1790
1798
1785
1779
1802
1795
1791
1789
1787
1777
1779
1795
1788
1791
1790
1779
1774
1785
1791
1787
1791
1794
1783
1779
1795
1786
1790
1798
1792
1789
1779
1776
1780
1792
1797
1793
1786
1799
1790
1787
1797
1798
1791
1792
1792
1793
1811
1835
1851
1856
1883
1917
1915
1910
1897
1870
1839
1792
1776
1792
1792
1776
1767
1771
1772
1770
1778
1773
1774
1782
1777
1706
1552
1491
1497
1774
2252
3093
3121
2259
1849
1613
1552
1667
1731
1734
1728
1717
1723
1731
1742
1733
1742
1741
1729
1728
1728
1729
1728
1728
1728
1735
1721
1709
1695
1683
1694
1694
1712
1712
1724
1747
1759
1792
1817
1835
1847
1857
1872
1889
1897
1891
1895
1904
1904
1906
1904
1907
1904
1906
1909
1903
1904
1902
1899
1891
1890
1885
1884
1887
1904
1895
1892
1904
1903
1900
1906
1919
1911
1902
1922
1910
1911
1904
1919
1920
1934
1922
1904
1917
1925
1939
1933
1935
1931
1935
1936
1931
1926
1939
1951
1950
1955
1964
1959
1942
1950
1967
1984
2001
2010
2021
2043
2064
2063
2037
2028
1987
1949
1936
1942
1939
1942
1930
1930
1935
1938
1929
1947
1941
1937
1929
1835
1687
1680
1819
2141
2873
3648
3008
2339
1991
1793
1687
1769
1874
1869
1867
1868
1874
1879
1870
1875
1878
1884
1883
1894
1882
1872
1878
1872
1868
1856
1856
1843
1835
1825
1821
1830
1833
1839
1861
1873
1887
1915
1937
1973
2000
2023
2030
2059
2085
2086
2084
2078
2081
2082
2085
2076
2081
2087
2081
2066
2078
2076
2057
2061
2058
2054
2041
2055
2057
2058
2053
2047
2053
2055
2042
2039
2039
2036
2043
2035
2034
2032
2035
2044
2047
2035
2036
2037
2042
2047
2038
2020
2038
2047
2037
2040
2065
2083
2091
2099
2112
2132
2142
2143
2129
2158
2077
1985
1999
2000
1997
1997
1981
1979
1972
1980
1981
1977
1981
1983
1973
1934
1746
1700
1727
1975
2416
3283
3523
2644
2155
1925
1737
1763
1855
1877
1877
1875
1877
1883
1874
1882
1879
1894
1879
1878
1872
1867
1869
1861
1855
1856
1840
1834
1823
1806
1797
1806
1815
1817
1842
1852
1872
1891
1930
1840
1953
2001
1989
1995
2005
2011
2000
2001
2013
2016
1999
2005
2007
2000
2007
1988
1982
1987
1983
1972
1971
1974
1968
1959
1963
1961
1953
1967
1966
1956
1962
1963
1958
1962
1966
1968
1968
1970
1963
1954
1973
1975
1967
1970
1968
1963
1961
1971
1963
1962
1959
1957
1965
1973
1954
1948
1963
1961
1955
1947
1950
1946
1954
1968
1995
2014
2018
2034
2066
2085
2063
2029
2014
1975
1921
1910
1927
1914
1910
1911
1904
1886
1904
1902
1898
1891
1888
1886
1795
1648
1582
1641
1931
2450
3469
3056
2317
1905
1665
1678
1776
1871
1785
1826
1821
1824
1819
1819
1829
1827
1840
1845
1836
1815
1830
1827
1823
1821
1814
1799
1802
1802
1789
1802
1809
1808
1809
1824
1841
1856
1872
1904
1919
1921
1935
1937
1936
1947
1950
1955
1956
1953
1942
1931
1947
1942
1936
1938
1930
1919
1930
1920
1917
1920
1917
1905
1907
1917
1901
1893
1904
1905
1911
1920
1909
1904
1908
1918
1909
1905
1915
1911
1904
1921
1909
1914
1918
1918
1906
1918
1915
1911
1913
1923
1920
1926
1934
1925
1927
1926
1929
1930
1921
1941
1978
1995
1999
2007
2035
2035
2026
2005
1974
1941
1901
1895
1901
1902
1886
1875
1872
1875
1879
1879
1872
1890
1887
1882
1772
1616
1571
1624
1982
2576
3469
3094
2249
1872
1674
1671
1791
1830
1818
1807
1806
1810
1808
1808
1811
1817
1805
1803
1794
1795
1803
1793
1782
1793
1791
1775
1771
1774
1745
1747
1755
1755
1765
1777
1799
1813
1834
1853
1875
1902
1910
1919
1917
1929
1921
1918
1867
1920
1910
1877
1914
1915
1920
1918
1904
1903
1903
1897
1892
1881
1889
1889
1887
1886
1883
1898
1895
1889
1890
1904
1899
1887
1894
1885
1897
1887
1892
1884
1881
1889
1886
1892
1891
1881
1893
1899
1893
1891
1887
1891
1887
1875
1805
1882
1914
1902
1889
1895
1910
1931
1927
1936
1954
1983
1998
1995
1986
1970
1950
1904
1863
1870
1867
1863
1865
1840
1827
1835
1840
1842
1846
1844
1841
1778
1630
1552
1593
1872
2345
3166
3184
2411
1985
1755
1567
1607
1722
1771
1742
1741
1745
1753
1742
1743
1757
1750
1751
1749
1744
1744
1757
1742
1726
1717
1709
1709
1703
1697
1683
1683
1703
1694
1729
1751
1744
1745
1811
1827
1850
1879
1894
1906
1958
1938
1931
1931
1935
1933
1943
1942
1941
1927
1937
1945
1943
1947
1941
1920
1926
1925
1918
1918
1915
1915
1919
1936
1926
1915
1936
1933
1930
1935
1943
1933
1927
1941
1938
1939
1946
1947
1943
1943
1941
1947
1947
1950
1943
1946
1956
1938
1963
1989
2007
2013
2033
2064
2064
2062
2055
2015
1978
1949
1933
1936
1931
1930
1920
1923
1915
1913
1919
1926
1911
1935
1934
1870
1696
1664
1713
1979
2582
3494
3359
2531
2063
1834
1692
1745
1843
1857
1863
1856
1854
1870
1861
1859
1867
1873
1862
1866
1861
1858
1846
1849
1840
1837
1836
1826
1808
1808
1801
1799
1805
1819
1831
1849
1889
1898
1915
1942
1973
1987
2016
2032
2029
2038
2032
2031
2032
2032
2032
2028
2032
2022
2015
2019
2011
2001
2000
1996
1984
1984
1984
1980
1975
1981
1968
1974
1990
1984
1970
1970
1977
1970
1975
1981
1963
1976
1984
1964
1968
1975
1984
1967
1969
1966
1968
1969
1973
1958
1963
1975
1968
1973
1968
1961
1956
1963
1969
1964
1967
1974
2007
2023
2030
2032
2069
2097
2069
2057
2030
1991
1959
1936
1943
1926
1920
1922
1905
1910
1919
1905
1907
1911
1912
1904
1870
1714
1609
1609
1794
2214
3154
3467
2624
2064
1739
1658
1747
1838
1843
1840
1827
1833
1826
1826
1840
1840
1830
1840
1840
1865
1826
1838
1822
1883
1830
1797
1823
1778
1808
1744
1804
1803
1810
1833
1838
1858
1883
1893
1904
1918
1936
1938
1951
1952
1957
1951
1957
1957
1951
1953
1956
1949
1937
1946
1933
1938
1936
1936
1921
1926
1917
1906
1919
1913
1907
1904
1909
1905
1906
1920
1905
1903
1903
1904
1904
1898
1898
1898
1899
1904
1898
1893
1898
1885
1891
1887
1885
1879
1890
1887
1878
1893
1878
1875
1879
1883
1873
1873
1878
1872
1865
1871
1862
1859
1884
1914
1914
1903
1941
1955
1963
1947
1926
1893
1863
1826
1805
1815
1818
1793
1784
1791
1791
1787
1799
1791
1783
1776
1766
1655
1519
1490
1581
1899
2489
3295
2753
2110
1754
1545
1555
1674
1712
1703
1688
1680
1694
1701
1699
1701
1710
1687
1683
1685
1679
1681
1678
1681
1665
1664
1669
1659
1651
1650
1648
1661
1678
1678
1689
1712
1737
1753
1778
1797
1803
1811
1835
1833
1845
1865
1871
1872
1873
1858
1855
1863
1873
1870
1861
1867
1855
1858
1866
1855
1860
1870
1872
1856
1870
1877
1872
1872
1878
1889
1892
1895
1889
1894
1894
1902
1892
1901
1913
1899
1908
1905
1907
1907
1927
1907
1904
1923
1924
1916
1930
1931
1929
1930
1932
1926
1930
1945
1957
1971
1990
2007
2035
2065
2073
2065
2053
2043
2018
1981
1956
1958
1958
1955
1940
1943
1951
1951
1961
1963
1958
1962
1968
1891
1730
1680
1773
2064
2573
3472
3279
2474
2099
1894
1726
1787
1901
1926
1904
1922
1915
1919
1927
1930
1923
1926
1934
1930
1924
1930
1925
1911
1914
1906
1885
1891
1873
1859
1863
1863
1870
1876
1904
1919
1935
1957
1986
2025
2046
2063
2091
2106
2112
2118
2125
2135
2128
2132
2139
2123
2111
2114
2113
2115
2106
2110
2107
2108
2106
2101
2096
2084
2085
2077
2086
2081
2076
2079
2086
2082
2091
2086
2071
2075
2082
2078
2079
2078
2071
2074
2073
2070
2063
2067
2065
2055
2047
2074
2059
2054
2065
2054
2053
2059
2038
2055
2082
2111
2095
2102
2144
2150
2133
2136
2113
2079
2035
2012
2000
2005
1995
1979
1979
1990
1989
1981
1983
1971
1971
1974
1929
1767
1699
1705
1945
2398
3287
3659
2645
2180
1918
1733
1775
1871
1882
1891
1882
1871
1883
1882
1885
1877
1885
1871
1872
1879
1868
1867
1859
1851
1840
1833
1824
1814
1804
1808
1808
1810
1826
1831
1845
1862
1871
1895
1922
1935
1941
1961
1969
1983
1982
1985
1977
1986
1983
1972
1966
1967
1966
1947
1941
1951
1941
1936
1933
1923
1933
1936
1922
1906
1906
1915
1907
1904
1914
1904
1920
1920
1909
1914
1929
1913
1904
1914
1917
1911
1911
1911
1903
1901
1910
1904
1904
1911
1894
1895
1904
1900
1886
1894
1901
1889
1886
1895
1893
1890
1898
1888
1884
1888
1909
1926
1951
1967
1982
2024
2016
1994
1970
1947
1907
1872
1866
1877
1865
1865
1866
1845
1842
1852
1808
1841
1862
1851
1840
1738
1578
1525
1623
1961
2718
3470
2850
2172
1777
1622
1652
1767
1803
1792
1778
1783
1779
1793
1787
1787
1798
1792
1792
1778
1778
1779
1772
1767
1786
1781
1769
1754
1763
1753
1753
1766
1751
1775
1787
1808
1836
1850
1857
1870
1891
1907
1915
1906
1920
1911
1904
1917
1919
1915
1915
1914
1919
1905
1899
1904
1901
1905
1895
1873
1887
1873
1872
1881
1882
1869
1872
1872
1870
1879
1883
1873
1874
1884
1874
1883
1893
1881
1871
1874
1870
1867
1866
1865
1865
1865
1875
1867
1874
1878
1870
1861
1866
1856
1847
1861
1867
1830
1872
1872
1859
1861
1860
1862
1899
1895
1904
1922
1963
1965
1941
1934
1920
1889
1847
1835
1827
1819
1822
1817
1822
1823
1811
1794
1809
1814
1808
1803
1744
1578
1519
1567
1866
2367
3200
3079
2230
1882
1673
1546
1643
1729
1728
1721
1723
1725
1727
1731
1742
1746
1741
1743
1727
1728
1726
1717
1723
1717
1722
1713
1712
1703
1687
1701
1703
1701
1718
1744
1744
1760
1791
1808
1826
1855
1883
1887
1904
1915
1905
1925
1926
1907
1918
1920
1927
1927
1934
1938
1920
1920
1923
1920
1903
1900
1889
1882
1826
1867
1887
1890
1901
1906
1901
1904
1883
1900
1903
1898
1903
1906
1909
1906
1913
1904
1906
1921
1909
1907
1911
1936
1923
1904
1920
1918
1936
1955
1972
1973
1991
2011
2019
2022
2033
2005
1968
1935
1899
1899
1904
1886
1888
1894
1886
1874
1886
1878
1872
1909
1892
1828
1689
1645
1667
1922
2342
3137
3376
2577
2101
1856
1645
1666
1761
1808
1814
1811
1794
1796
1802
1808
1818
1808
1794
1809
1808
1809
1798
1795
1779
1776
1772
1758
1731
1728
1731
1733
1742
1748
1758
1774
1803
1822
1843
1885
1904
1930
1942
1965
1984
1986
1984
1978
1984
1989
1995
1997
1999
1995
1987
1987
1983
1975
1981
1978
1974
1968
1970
1970
1965
1965
1954
1959
1957
1949
1950
1957
1962
1955
1961
1963
1962
1954
1977
1973
1962
1949
1953
1957
1955
1958
1952
1958
1963
1965
1963
1999
2021
2021
2023
2043
2073
2061
2055
2021
1994
1963
1936
1936
1938
1927
1920
1917
1914
1903
1905
1907
1905
1904
1911
1895
1776
1659
1625
1782
2145
2813
3686
2938
2269
1934
1711
1674
1759
1824
1834
1825
1815
1824
1834
1830
1826
1828
1821
1818
1835
1823
1815
1810
1806
1804
1801
1786
1776
1777
1777
1776
1777
1776
1783
1809
1834
1855
1883
1963
1911
1998
1963
1979
1982
1989
1991
2100
1990
1947
1990
1984
1997
1989
1985
1981
1982
1973
1977
1969
1957
1968
1963
1964
1953
1947
1952
1942
1946
1943
1940
1941
1946
1943
1949
1957
1942
1936
1946
1939
1950
1950
1938
1938
1953
1952
1939
1943
1941
1935
1936
1947
1941
1936
1938
1939
1936
1968
2000
1996
2007
2035
2056
2039
2034
2003
1968
1934
1905
1887
1905
1898
1883
1877
1882
1870
1872
1885
1887
1898
1897
1883
1719
1595
1554
1658
2101
2820
3607
2939
2150
1802
1646
1693
1813
1823
1815
1805
1808
1713
1808
1808
1787
1824
1805
1805
1794
1806
1807
1809
1801
1797
1778
1778
1771
1758
1771
1776
1785
1788
1796
1808
1837
1849
1857
1891
1911
1918
1932
1936
1937
1936
1954
1949
1943
1961
1949
1943
1939
1936
1934
1934
1920
1919
1916
1915
1908
1904
1907
1902
1907
1911
1906
1907
1905
1907
1912
1904
1907
1904
1905
1908
1891
1902
1914
1899
1899
1904
1910
1904
1917
1917
1909
1907
1927
1915
1911
1909
1917
1916
1918
1916
1910
1925
1921
1941
1971
1983
1984
2006
2047
2014
2005
1988
1958
1917
1889
1887
1890
1897
1887
1876
1872
1881
1875
1874
1885
1873
1872
1863
1727
1582
1531
1641
2053
2755
3578
2958
2182
1831
1642
1671
1792
1808
1791
1791
1795
1787
1789
1781
1779
1779
1789
1786
1779
1777
1777
1776
1763
1756
1746
1699
1739
1722
1722
1725
1732
1745
1751
1755
1772
1790
1822
1833
1844
1869
1872
1885
1895
1889
1903
1904
1895
1900
1894
1887
1885
1885
1893
1873
1871
1866
1858
1855
1856
1865
1859
1856
1849
1845
1843
1847
1841
1854
1856
1851
1851
1861
1856
1862
1858
1857
1851
1856
1853
1855
1853
1854
1842
1845
1863
1857
1847
1851
1859
1861
1858
1878
1891
1901
1904
1927
1955
1977
1958
1947
1938
1907
1851
1839
1834
1829
1831
1826
1820
1828
1835
1826
1827
1823
1828
1810
1754
1612
1530
1607
1876
2322
3327
3203
2433
2000
1745
1579
1616
1727
1762
1746
1747
1747
1744
1761
1763
1759
1761
1772
1754
1753
1761
1763
1740
1739
1735
1722
1728
1712
1699
1705
1696
1705
1721
1732
1747
1779
1808
1835
1853
1885
1914
1934
1946
1949
1958
1962
1963
1968
1978
1978
1971
1973
1985
1981
1973
1970
1963
1958
1965
1962
1948
1953
1958
1968
1963
1968
1963
1950
1953
1959
1955
1963
1979
1968
1954
1954
1968
1969
1963
1968
1981
1968
1974
1965
1965
1968
1986
2000
2022
2044
2070
2091
2066
2070
2063
2018
1974
1955
1952
1938
1927
1933
1918
1909
1911
1925
1919
1915
1922
1919
1905
1808
1636
1600
1743
2085
2875
3701
3066
2347
1953
1741
1662
1747
1825
1824
1820
1815
1825
1819
1823
1827
1818
1819
1811
1821
1813
1810
1797
1795
1792
1781
1775
1769
1755
1749
1751
1762
1761
1776
1792
1808
1829
1860
1891
1905
1923
1952
1965
1971
1989
1983
1989
1991
1991
1986
1990
1990
1980
1976
1972
1969
1968
1968
1967
1963
1968
1953
1971
1946
1941
1937
1953
1946
1945
1938
1947
1938
1949
1954
1947
1939
1953
1958
1949
1947
1963
1968
1975
1969
1969
1975
1998
2005
2010
2018
2032
2064
2078
2076
2096
2115
2111
2096
2079
2047
1989
1958
1955
1958
1947
1939
1927
1919
1920
1917
1918
1917
1919
1915
1911
1840
1641
1588
1648
1940
2631
3598
3215
2448
1966
1714
1663
1776
1841
1824
1806
1819
1823
1808
1819
1821
1809
1814
1834
1825
1815
1817
1819
1808
1807
1795
1789
1787
1780
1776
1775
1776
1783
1792
1812
1821
1846
1867
1878
1901
1931
1933
1935
1942
1949
1949
1954
1963
1955
1961
1962
1956
1938
1945
1942
1943
1938
1933
1934
1929
1918
1906
1901
1906
1909
1907
1919
1918
1905
1915
1905
1898
1904
1922
1907
1899
1904
1903
1899
1906
1904
1891
1904
1898
1901
1905
1910
1895
1903
1951
1911
1901
1911
1909
1899
1926
1952
1965
1973
2033
2019
2024
2018
1994
1971
1877
1889
1872
1879
1872
1863
1861
1840
1850
1854
1858
1856
1851
1869
1869
1781
1630
1554
1571
1855
2391
3300
3308
2407
1947
1710
1640
1754
1795
1795
1781
1787
1782
1783
1775
1780
1786
1788
1781
1786
1776
1779
1776
1763
1751
1755
1744
1728
1728
1725
1717
1727
1726
1723
1728
1759
1782
1779
1811
1831
1847
1870
1907
1894
1899
1902
1895
1941
1899
1899
1895
1923
1895
1888
1884
1891
1876
1871
1865
1869
1872
1886
1870
1866
1876
1883
1857
1856
1868
1867
1867
1879
1877
1870
1871
1870
1872
1871
1871
1856
1865
1856
1846
1855
1868
1868
1870
1872
1865
1863
1862
1867
1873
1874
1905
1917
1929
1934
1951
1976
1996
1992
1981
1951
1907
1871
1863
1858
1857
1853
1872
1855
1862
1863
1850
1845
1859
1862
1872
1735
1600
1575
1697
2110
2775
3536
2967
2205
1904
1711
1615
1719
1790
1790
1785
1791
1792
1789
1793
1794
1790
1790
1796
1783
1792
1786
1779
1770
1770
1763
1744
1743
1748
1734
1734
1744
1738
1743
1766
1793
1807
1831
1859
1881
1913
1953
1968
1978
1996
1986
2000
2003
2004
2007
2000
1997
1986
2000
2002
1998
2001
2000
1984
1984
1982
1984
1973
1981
1982
1968
1968
1981
1982
1978
1979
1983
1984
1978
1968
1975
1986
1985
1975
1984
1977
1978
1981
2008
1984
1982
1987
1979
1976
2006
2025
2034
2058
2080
2089
2075
2081
2059
2027
1984
1959
1953
1959
1950
1920
1935
1938
1929
1927
1936
1931
1933
1942
1926
1797
1665
1651
1808
2177
3025
3721
2941
2304
1936
1739
1715
1808
1855
1859
1857
1844
1850
1851
1856
1852
1856
1856
1850
1851
1839
1832
1841
1839
1819
1819
1805
1796
1798
1790
1776
1787
1808
1809
1818
1840
1865
1884
1915
1937
1962
1970
1987
1994
2003
2014
2013
2013
2019
2010
2001
2011
2010
2007
2001
2000
1970
1983
1987
1968
1968
1979
1972
1972
1963
1958
1959
1965
1968
1959
1968
1968
1968
1965
1965
1965
1963
1971
1963
1963
1966
1959
1951
1957
1963
1957
1951
1959
1956
1959
1956
1955
1947
1951
1961
1982
2005
2014
2015
2060
2081
2045
2041
2015
1974
1941
1922
1930
1921
1919
1918
1900
1895
1904
1902
1903
1909
1904
1897
1845
1664
1584
1595
1815
2387
3325
3443
2592
1994
1744
1648
1738
1829
1824
1808
1811
1806
1807
1808
1818
1813
1804
1813
1807
1811
1815
1808
1799
1798
1791
1789
1787
1782
1766
1773
1776
1771
1788
1807
1815
1840
1869
1883
1892
1914
1929
1931
1947
1966
1957
1958
1959
1959
1950
1951
1949
1943
1942
1941
1931
1924
1931
1921
1914
1924
1909
1919
1920
1917
1904
1904
1915
1903
1902
1914
1900
1904
1915
1904
1913
1918
1904
1904
1908
1911
1913
1920
1918
1913
1914
1934
1913
1907
1910
1918
1906
1917
1895
1903
1910
1962
1979
1975
1991
2023
2032
2018
1999
1970
1935
1903
1886
1878
1876
1871
1859
1873
1870
1870
1867
1872
1875
1881
1870
1805
1638
1570
1565
1840
2361
3269
3367
2433
1962
1699
1643
1754
1802
1795
1793
1793
1803
1792
1794
1785
1802
1798
1807
1807
1795
1791
1792
1789
1773
1774
1781
1761
1761
1754
1753
1756
1770
1772
1779
1801
1809
1829
1857
1893
1883
1899
1921
1923
1920
1920
1929
1923
1934
1936
1919
1914
1915
1911
1904
1909
1898
1893
1900
1865
1872
1877
1878
1786
1881
1882
1871
1873
1808
1872
1872
1874
1873
1870
1874
1887
1881
1872
1887
1872
1870
1878
1872
1874
1883
1872
1869
1886
1876
1873
1870
1877
1872
1886
1910
1931
1931
1944
1967
1987
1993
1983
1956
1921
1888
1857
1861
1866
1847
1835
1840
1843
1834
1843
1843
1839
1840
1840
1791
1630
1560
1573
1800
2321
3165
3348
2576
2017
1776
1603
1631
1730
1765
1766
1759
1762
1702
1776
1762
1761
1770
1769
1769
1771
1761
1755
1761
1744
1738
1738
1717
1710
1712
1715
1713
1712
1703
1716
1747
1780
1791
1816
1857
1878
1899
1925
1939
1943
1961
1952
1954
1966
1969
1954
1958
1958
1959
1954
1966
1955
1957
1955
1946
1939
1946
1945
1937
1939
1958
1954
1945
1950
1938
1939
1949
1943
1950
1957
1957
1951
1949
1952
1949
1966
1959
1952
1968
2006
2015
2021
2041
2075
2077
2063
2057
2006
1971
1953
1934
1917
1915
1916
1901
1904
1905
1902
1907
1909
1904
1905
1895
1815
1649
1603
1663
2000
2523
3440
3399
2454
2062
1817
1658
1716
1802
1822
1829
1811
1815
1822
1811
1815
1823
1825
1817
1819
1819
1808
1803
1790
1786
1781
1773
1756
1743
1739
1741
1737
1747
1757
1769
1791
1813
1839
1858
1908
1927
1954
1979
2000
2000
2000
2000
2000
1993
2011
1988
1990
2006
1962
1991
1984
1925
1979
1983
1977
1968
1963
1967
1950
1951
1965
1957
1949
1956
1963
1953
1959
1959
1954
1959
1969
1962
1952
1957
1950
1953
1963
1965
1973
2005
2025
2032
2053
2087
2088
2069
2058
2023
1975
1951
1933
1926
1919
1905
1902
1909
1903
1894
1898
1915
1904
1904
1904
1842
1678
1616
1648
1904
2390
3311
3344
2496
2027
1776
1650
1742
1818
1822
1823
1809
1805
1821
1815
1808
1815
1824
1810
1814
1831
1814
1804
1810
1806
1791
1792
1791
1773
1763
1765
1773
1783
1783
1790
1809
1839
1846
1891
1898
1914
1933
1947
1969
1965
1963
1971
1970
1967
1974
1968
1969
1968
1966
1958
1958
1956
1946
1950
1955
1947
1936
1936
1930
1931
1937
1936
1926
1936
1943
1932
1931
1935
1937
1934
1924
1929
1927
1930
1927
1921
1927
1929
1923
1921
1942
1968
1994
2000
2010
2041
2067
2042
2029
2003
1964
2011
1899
1904
1886
1890
1898
1872
1869
1874
1884
1936
1872
1877
1881
1846
1690
1585
1564
1746
2170
2967
3523
2615
2036
1754
1646
1739
1809
1831
1805
1799
1806
1803
1796
1806
1802
1808
1809
1812
1799
1795
1803
1783
1781
1783
1772
1766
1770
1767
1751
1755
1774
1770
1791
1808
1817
1825
1860
1875
1901
1919
1927
1931
1942
1939
1936
1943
1951
1939
1938
1949
1946
1936
1938
1936
1930
1936
1933
1920
1933
1932
1917
1909
1914
1909
1907
1915
1911
1915
1918
1917
1908
1915
1911
1904
1913
1919
1904
1915
1927
1911
1907
1911
1911
1905
1910
1910
1920
1967
1991
1984
2003
2045
2046
2021
1999
1961
1931
1892
1872
1872
1873
1872
1856
1859
1865
1851
1855
1867
1856
1847
1839
1753
1595
1563
1631
1891
2393
3346
2963
2263
1889
1634
1600
1721
1776
1767
1770
1766
1750
1759
1779
1777
1765
1765
1761
1758
1764
1765
1758
1755
1755
1742
1741
1728
1712
1707
1715
1714
1727
1739
1743
1772
1776
1814
1827
1854
1869
1895
1899
1915
1919
1927
1938
1939
1933
1919
1926
1934
1930
1923
1916
1921
1915
1908
1905
1907
1915
1902
1906
1904
1909
1907
1911
1905
1914
1938
1931
1924
1922
1914
1926
1923
1931
1928
1922
1923
1919
1922
1947
1963
1971
1983
2002
2033
2047
2037
2026
2000
1965
1931
1917
1920
1898
1904
1907
1886
1874
1872
1874
1872
1870
1875
1866
1850
1712
1591
1623
1842
2224
3095
3517
2703
2125
1835
1654
1631
1731
1797
1760
1776
1790
1780
1776
1791
1786
1778
1718
1765
1767
1776
1766
1753
1745
1735
1714
1713
1708
1697
1687
1677
1679
1693
1707
1728
1741
1754
1793
1825
1852
1889
1909
1919
1942
1946
1937
1936
1946
1950
1947
1947
1929
1923
1937
1934
1922
1932
1920
1903
1898
1899
1885
1898
1897
1891
1899
1899
1891
1891
1894
1898
1896
1891
1887
1893
1883
1883
1889
1879
1881
1878
1882
1904
1920
1935
1958
1975
1996
1993
1984
1971
1950
1909
1888
1855
1857
1850
1835
1827
1828
1816
1817
1821
1818
1817
1831
1826
1790
1623
1525
1534
1757
2278
3120
3398
2598
1975
1723
1578
1615
1716
1749
1733
1728
1739
1735
1733
1741
1744
1743
1747
1758
1740
1742
1740
1730
1719
1729
1717
1700
1692
1702
1695
1698
1712
1713
1717
1751
1769
1788
1815
1849
1867
1887
1906
1909
1920
1920
1921
1923
1934
1920
1916
1914
1911
1874
1926
1917
1901
1907
1914
1904
1941
1897
1905
1895
1882
1893
1891
1897
1904
1901
1904
1919
1917
1919
1921
1915
1915
1915
1913
1920
1918
1917
1914
1920
1935
1920
1918
1937
1935
1958
1985
2005
2015
2059
2067
2047
2035
2021
1975
1950
1920
1908
1919
1916
1904
1901
1906
1907
1891
1904
1911
1904
1904
1885
1744
1626
1610
1730
2103
2820
3579
2797
2160
1837
1662
1735
1834
1856
1840
1843
1831
1856
1854
1856
1842
1854
1865
1861
1856
1865
1854
1846
1853
1840
1837
1843
1834
1815
1824
1813
1823
1834
1856
1869
1881
1904
1920
1938
1935
1973
1990
1999
2000
2001
2011
2018
2006
2001
2016
2003
2003
2000
1995
1995
1994
2001
1987
1993
2023
1984
1978
1985
1986
1969
1984
1969
1969
1974
1983
1983
1984
1990
1975
1978
1981
1975
1981
1985
1970
1977
1983
1985
1978
1974
1975
1979
1977
1984
2010
2027
2033
2053
2082
2096
2083
2079
2041
1991
1949
1937
1943
1934
1934
1922
1872
1916
1925
1915
1828
1872
1907
1898
1839
1692
1623
1624
1890
2367
3236
3282
2381
1970
1746
1648
1747
1828
1827
1824
1846
1840
1817
1821
1840
1827
1815
1821
1821
1808
1821
1822
1808
1805
1801
1778
1777
1776
1763
1770
1786
1777
1790
1799
1814
1833
1858
1890
1901
1909
1939
1963
1969
1978
1979
1978
1980
1978
1975
1974
1968
1968
1967
1978
1963
1961
1968
1954
1949
1968
1962
1962
1958
1962
1959
1953
1969
1973
1968
1965
1968
1970
1973
1968
1959
1954
1968
1973
1971
1969
1946
1966
1969
1983
2010
2035
2039
2055
2090
2096
2079
2064
2037
2003
1969
1957
1949
1937
1945
1931
1921
1920
1920
1917
1919
1920
1921
1920
1872
1712
1638
1709
1977
2429
3451
3354
2512
2065
1799
1655
1709
1819
1853
1838
1826
1839
1837
1841
1842
1840
1835
1842
1838
1832
1839
1814
1806
1808
1805
1789
1783
1771
1748
1750
1763
1762
1785
1789
1745
1808
1849
1883
1915
1936
1955
1968
1994
2000
2000
1998
2000
2005
2003
2012
2006
2000
2010
2000
1998
1996
1995
1984
1979
1981
1969
1968
1982
1968
1968
1979
1979
1974
1969
1979
1978
1984
1981
1971
1966
1969
1959
1967
1969
1965
1965
1968
1973
1968
1959
1986
2003
2029
2037
2037
2075
2087
2067
2047
2032
1990
1953
1940
1937
1921
1920
1920
1904
1904
1920
1918
1909
1917
1915
1906
1847
1703
1621
1685
1958
2443
3469
