-6.417046317742634010e-01
-6.140051512660218425e-01
-5.124403894024694983e-01
-4.201087877083308220e-01
-3.508600864377268147e-01
-2.769948050824159180e-01
-1.846632033882772417e-01
-1.154145021176733454e-01
-6.463212118589700683e-02
-5.539896101648322801e-02
-3.231606059294855893e-02
-2.308290042353466909e-02
-1.846632033882772417e-02
4.616580084706944920e-03
-2.308290042353466909e-02
-9.233160169413834328e-03
9.233160169413889840e-03
-1.846632033882772417e-02
-3.231606059294855893e-02
-5.539896101648322801e-02
-2.308290042353466909e-02
-4.154922076236233774e-02
-7.386528135531089667e-02
-3.231606059294855893e-02
-4.154922076236233774e-02
-4.154922076236233774e-02
-3.693264067765544834e-02
-4.154922076236233774e-02
-9.233160169413834328e-03
-9.233160169413834328e-03
-3.231606059294855893e-02
-3.231606059294855893e-02
-9.233160169413834328e-03
0.000000000000000000e+00
0.000000000000000000e+00
6.463212118589706234e-02
-2.308290042353466909e-02
-3.231606059294855893e-02
-5.539896101648322801e-02
-1.107979220329663450e-01
-1.892797834729842421e-01
-2.262124241506396904e-01
-2.031295237271050214e-01
-2.677616449130020282e-01
-2.631450648282951388e-01
-2.400621644047604697e-01
-2.400621644047604697e-01
-2.769948050824159180e-01
-1.523471427953287938e-01
-9.233160169413867635e-02
-1.292642423717940692e-01
0.000000000000000000e+00
0.000000000000000000e+00
0.000000000000000000e+00
0.000000000000000000e+00
0.000000000000000000e+00
1.384974025412079313e-02
1.338808224565010141e-01
1.754300432188634629e-01
2.215958440659327455e-01
2.262124241506396904e-01
2.123626838965188557e-01
2.031295237271050214e-01
1.661968830494495730e-01
1.846632033882772972e-01
2.077461038118119663e-01
1.754300432188634074e-01
1.846632033882772972e-01
1.754300432188634074e-01
1.431139826259149039e-01
1.292642423717940969e-01
8.771502160943170368e-02
9.233160169413862084e-03
-9.233160169413862084e-03
4.616580084706933818e-02
1.846632033882773805e-02
-2.769948050824158625e-02
-4.616580084706931042e-03
-4.616580084706931042e-03
-6.463212118589704847e-02
-2.769948050824158625e-02
-4.616580084706931042e-03
-3.231606059294852423e-02
-4.616580084706931042e-03
0.000000000000000000e+00
-4.616580084706931042e-03
-4.616580084706931042e-03
6.001554110119011742e-02
2.769948050824160013e-02
0.000000000000000000e+00
2.769948050824160013e-02
4.616580084706933818e-02
-3.231606059294852423e-02
-4.616580084706931042e-03
-4.616580084706931042e-03
2.908445453365367528e-01
8.309844152472478651e-02
2.308290042353466909e-02
9.233160169413862084e-03
-4.616580084706931042e-03
9.233160169413862084e-03
-4.616580084706931736e-02
1.431139826259149039e-01
3.231606059294852562e-01
3.508600864377268702e-01
3.693264067765545944e-01
5.632227703342457259e-01
6.417046317742635120e-01
5.678393504189526153e-01
5.124403894024693873e-01
3.831761470306753736e-01
1.985129436423980764e-01
6.924870127060397951e-02
0.000000000000000000e+00
-9.233160169413875962e-03
-2.308290042353465521e-02
9.233160169413875962e-03
-1.200310822023802348e-01
-1.431139826259149039e-01
-9.233160169413864860e-02
-1.061813419482594278e-01
-1.061813419482594417e-01
0.000000000000000000e+00
0.000000000000000000e+00
-5.539896101648317250e-02
-5.539896101648317250e-02
-1.015647618635525107e-01
-6.601709521130912917e-01
-1.384974025412079701e+00
-1.523471427953287716e+00
-9.510154974496279889e-01
7.386528135531091888e-01
3.730196708443201281e+00
8.235978871117167088e+00
5.110554153770573649e+00
1.671201990663909509e+00
-1.061813419482594556e-01
-1.135678700837905453e+00
-9.463989173649210995e-01
-5.032072292330556085e-01
-4.062590474542100427e-01
-3.831761470306753736e-01
-3.693264067765545944e-01
-4.478082682165723805e-01
-4.339585279624516012e-01
-3.554766665224338151e-01
-4.016424673695030423e-01
-4.108756275389169321e-01
-3.693264067765545944e-01
-4.016424673695030423e-01
-4.154922076236239326e-01
-3.554766665224338151e-01
-4.154922076236239326e-01
-4.755077487248140500e-01
-4.708911686401070495e-01
-4.801243288095209394e-01
-5.032072292330556085e-01
-4.570414283859862703e-01
-4.939740690636417186e-01
-5.493730300801249467e-01
-5.170569694871763877e-01
-5.632227703342457259e-01
-5.539896101648318361e-01
-5.724559305036596157e-01
-4.154922076236239326e-01
-4.339585279624516012e-01
-3.877927271153822630e-01
-3.693264067765545944e-01
-2.169792639812258006e-01
-1.292642423717940692e-01
-1.384974025412080700e-02
4.616580084706931042e-03
-4.616580084706931042e-03
3.231606059294852423e-02
2.492953245741743318e-01
1.338808224565010419e-01
1.431139826259148762e-01
1.615803029647426281e-01
1.431139826259148762e-01
1.246476622870871798e-01
1.338808224565010419e-01
1.477305627106218211e-01
1.061813419482594278e-01
1.015647618635525107e-01
7.848186144001784159e-02
3.231606059294852423e-02
6.924870127060397951e-02
8.771502160943170368e-02
4.154922076236239326e-02
2.769948050824159319e-02
3.231606059294852423e-02
1.846632033882772764e-02
-4.154922076236238632e-02
1.846632033882772764e-02
4.616580084706931042e-03
-3.693264067765545527e-02
-1.846632033882773111e-02
9.233160169413863819e-03
-4.154922076236238632e-02
-1.846632033882773111e-02
1.384974025412079660e-02
-4.616580084706931042e-03
4.616580084706931042e-03
5.539896101648318638e-02
2.769948050824159319e-02
-4.616580084706931042e-03
2.308290042353466215e-02
1.846632033882772764e-02
-3.231606059294852423e-02
4.616580084706931042e-03
4.616580084706931042e-03
-6.001554110119012436e-02
-4.616580084706931736e-02
4.616580084706931042e-03
-4.154922076236238632e-02
0.000000000000000000e+00
3.693264067765545527e-02
-3.231606059294852423e-02
-4.616580084706931736e-02
-4.616580084706931736e-02
-4.154922076236238632e-02
8.309844152472478651e-02
2.723782249977090286e-01
3.370103461836060355e-01
3.093108656753644770e-01
4.801243288095209394e-01
6.186217313507288429e-01
5.632227703342457259e-01
5.032072292330556085e-01
3.924093072000892635e-01
1.938963635576911315e-01
2.308290042353465521e-02
0.000000000000000000e+00
0.000000000000000000e+00
0.000000000000000000e+00
-1.384974025412077925e-02
-4.154922076236239326e-02
-8.771502160943173143e-02
-7.848186144001784159e-02
-7.386528135531089667e-02
-8.771502160943173143e-02
-5.078238093177628310e-02
-1.846632033882772417e-02
-6.924870127060395175e-02
-1.384974025412083476e-02
-1.846632033882772417e-02
-4.755077487248139945e-01
-1.315725324141475694e+00
-1.611186449562719281e+00
-1.126445540668491230e+00
2.954611254212436422e-01
3.019243375398333651e+00
7.418844196124039669e+00
5.669160344020112596e+00
2.174409219896964895e+00
2.308290042353465799e-01
-7.940517745695924168e-01
-8.540673156707824232e-01
-3.462435063530199253e-01
-1.938963635576911315e-01
-2.677616449130021392e-01
-2.954611254212436977e-01
-3.370103461836060355e-01
-3.370103461836060355e-01
-3.370103461836060355e-01
-3.462435063530199253e-01
-3.970258872847961529e-01
-3.508600864377269257e-01
-3.277771860141922566e-01
-3.924093072000891524e-01
-4.385751080471584906e-01
-4.016424673695030423e-01
-4.293419478777446008e-01
-6.740206923672120709e-01
-4.016424673695031533e-01
-4.616580084706932707e-01
-5.216735495718832771e-01
-5.355232898260041674e-01
-5.309067097412972780e-01
-6.232383114354357323e-01
-6.140051512660219535e-01
-5.632227703342457259e-01
-6.093885711813150641e-01
-5.724559305036595047e-01
-4.801243288095208284e-01
-4.339585279624516012e-01
-3.600932466071407045e-01
-2.954611254212435867e-01
-1.708134631341564624e-01
-1.107979220329663450e-01
0.000000000000000000e+00
-1.846632033882766866e-02
1.846632033882777968e-02
1.338808224565010696e-01
1.708134631341565179e-01
1.292642423717941247e-01
1.431139826259149039e-01
1.708134631341565179e-01
1.523471427953287938e-01
1.292642423717941247e-01
1.661968830494495730e-01
1.661968830494495730e-01
1.200310822023801793e-01
1.246476622870871243e-01
5.539896101648311699e-02
4.616580084706933818e-02
3.693264067765544834e-02
4.616580084706933818e-02
-1.384974025412077925e-02
-1.384974025412077925e-02
-9.233160169413778817e-03
-5.078238093177622758e-02
-6.463212118589700683e-02
-2.769948050824166952e-02
-4.154922076236244877e-02
-4.154922076236244877e-02
-4.616580084707000431e-03
-4.154922076236244877e-02
-8.309844152472478651e-02
-9.233160169413889840e-03
-1.846632033882777968e-02
-4.154922076236244877e-02
-2.769948050824166952e-02
3.231606059294844790e-02
-1.846632033882777968e-02
4.616580084706889409e-03
0.000000000000000000e+00
9.233160169413778817e-03
-3.231606059294855893e-02
-2.308290042353466909e-02
-4.154922076236244877e-02
-2.769948050824166952e-02
4.616580084706928266e-02
3.231606059294844790e-02
-9.233160169413889840e-03
3.231606059294844790e-02
8.309844152472473100e-02
4.616580084706928266e-02
3.231606059294844790e-02
3.231606059294844790e-02
-1.384974025412077925e-02
2.769948050824155850e-02
6.001554110119006191e-02
0.000000000000000000e+00
2.308290042353466909e-02
9.694818177884556576e-02
5.539896101648317250e-02
3.693264067765544834e-02
4.154922076236233774e-02
1.338808224565010141e-01
8.771502160943167592e-02
7.386528135531089667e-02
2.262124241506396349e-01
3.139274457600714219e-01
3.323937660988991460e-01
3.970258872847962084e-01
4.847409088942279398e-01
6.509377919436775128e-01
6.878704326213329612e-01
6.093885711813150641e-01
4.893574889789348292e-01
3.508600864377268147e-01
2.539119046588812489e-01
5.539896101648317250e-02
4.616580084706889409e-03
8.771502160943173143e-02
2.769948050824155850e-02
-9.233160169413889840e-03
3.231606059294855893e-02
-4.616580084706889409e-03
-1.846632033882777968e-02
1.846632033882777968e-02
-4.154922076236233774e-02
-7.848186144001789710e-02
-9.233160169413889840e-03
5.078238093177628310e-02
-2.308290042353466909e-02
-7.155699131295744087e-01
-1.315725324141475694e+00
-1.468072466936804377e+00
-8.309844152472477541e-01
1.278792683463820135e+00
4.718144846570484496e+00
7.695839001206455698e+00
4.528865063097500254e+00
1.172611341515560790e+00
-2.862279652518296968e-01
-9.740983978731626580e-01
-7.894351944848854163e-01
-2.862279652518298079e-01
-1.846632033882772972e-01
-2.677616449130020837e-01
-2.816113851671228629e-01
-3.185440258447783113e-01
-3.093108656753644214e-01
-3.185440258447783113e-01
-2.816113851671228629e-01
-2.169792639812258561e-01
-2.492953245741743040e-01
-2.677616449130020837e-01
-1.892797834729841866e-01
-2.262124241506396349e-01
-2.492953245741743040e-01
-2.446787444894674146e-01
-2.769948050824159735e-01
-2.954611254212436422e-01
-2.308290042353466354e-01
-2.354455843200535248e-01
-3.139274457600714219e-01
-3.323937660988990905e-01
-2.677616449130020837e-01
-3.000777055059505316e-01
-3.323937660988990905e-01
-2.954611254212436422e-01
-3.000777055059505316e-01
-1.754300432188634074e-01
-1.523471427953287383e-01
-4.154922076236239326e-02
0.000000000000000000e+00
0.000000000000000000e+00
4.616580084706933818e-02
-4.616580084706933818e-02
0.000000000000000000e+00
0.000000000000000000e+00
9.233160169413862084e-03
1.015647618635525107e-01
8.771502160943170368e-02
1.846632033882773111e-02
-1.846632033882772764e-02
6.001554110119011742e-02
7.386528135531091055e-02
9.233160169413863819e-03
3.231606059294852423e-02
0.000000000000000000e+00
0.000000000000000000e+00
2.769948050824159319e-02
-2.308290042353466215e-02
-3.693264067765545527e-02
-2.308290042353465868e-02
0.000000000000000000e+00
-2.769948050824159319e-02
-3.693264067765545527e-02
1.384974025412079313e-02
-2.769948050824159319e-02
-3.693264067765545527e-02
1.846632033882773111e-02
1.384974025412079313e-02
-6.463212118589704847e-02
-3.693264067765545527e-02
4.616580084706932430e-02
5.539896101648318638e-02
-9.233160169413862084e-03
-1.384974025412079313e-02
-4.154922076236238632e-02
-4.616580084706931042e-03
4.616580084706931042e-03
5.078238093177626922e-02
-9.233160169413862084e-03
0.000000000000000000e+00
6.463212118589704847e-02
0.000000000000000000e+00
1.384974025412080700e-02
0.000000000000000000e+00
-4.616580084706931042e-03
4.154922076236240713e-02
9.694818177884557964e-02
6.001554110119013130e-02
0.000000000000000000e+00
5.078238093177626922e-02
6.001554110119013130e-02
3.231606059294851729e-02
5.078238093177626922e-02
6.924870127060399339e-02
9.694818177884557964e-02
6.001554110119013130e-02
9.233160169413863472e-02
1.384974025412079590e-01
2.169792639812258006e-01
3.139274457600713664e-01
2.862279652518298079e-01
3.277771860141921456e-01
5.863056707577803950e-01
6.647875321977982921e-01
6.417046317742636230e-01
6.555543720283844022e-01
6.232383114354358433e-01
3.370103461836060355e-01
2.031295237271050214e-01
5.539896101648318638e-02
5.539896101648318638e-02
1.846632033882773805e-02
0.000000000000000000e+00
4.616580084706931042e-03
6.924870127060399339e-02
1.846632033882773805e-02
3.693264067765546221e-02
-1.846632033882772417e-02
4.616580084706931042e-03
-9.233160169413862084e-03
-9.233160169413862084e-03
1.384974025412080700e-02
-2.031295237271050214e-01
-9.140828567719725406e-01
-1.301875583887354804e+00
-1.043347099143766554e+00
3.554766665224337596e-01
2.322139782607586689e+00
6.195450473676703318e+00
7.543491858411127460e+00
3.051559435991282321e+00
9.833315580425765479e-01
0.000000000000000000e+00
-9.186994368566794300e-01
-9.787149779578696585e-01
-4.893574889789348292e-01
-3.416269262683129804e-01
-2.908445453365366973e-01
-3.139274457600713664e-01
-3.370103461836060355e-01
-3.093108656753644770e-01
-2.262124241506396904e-01
-2.539119046588812489e-01
-3.093108656753644770e-01
-3.139274457600713664e-01
-2.954611254212436977e-01
-2.631450648282951388e-01
-1.938963635576911315e-01
-3.277771860141921456e-01
-3.185440258447783113e-01
-3.370103461836060355e-01
-4.385751080471585461e-01
-4.385751080471585461e-01
-4.154922076236238770e-01
-4.154922076236238770e-01
-4.985906491483486636e-01
-5.309067097412971670e-01
-4.939740690636417186e-01
-6.047719910966080636e-01
-5.124403894024693873e-01
-3.924093072000892080e-01
-3.416269262683129804e-01
-4.016424673695030978e-01
-2.677616449130020282e-01
-1.292642423717940969e-01
-6.463212118589704847e-02
0.000000000000000000e+00
0.000000000000000000e+00
0.000000000000000000e+00
0.000000000000000000e+00
0.000000000000000000e+00
4.616580084706889409e-03
1.061813419482594556e-01
1.523471427953287938e-01
1.431139826259149039e-01
8.309844152472478651e-02
1.154145021176732344e-01
1.477305627106217933e-01
1.431139826259149039e-01
1.061813419482594556e-01
1.431139826259149039e-01
1.061813419482594556e-01
6.463212118589700683e-02
1.154145021176732344e-01
9.233160169413867635e-02
2.308290042353466909e-02
4.616580084706889409e-03
-8.309844152472478651e-02
0.000000000000000000e+00
6.924870127060400726e-02
0.000000000000000000e+00
-1.384974025412077925e-02
1.384974025412077925e-02
4.154922076236233774e-02
2.769948050824155850e-02
0.000000000000000000e+00
0.000000000000000000e+00
-5.078238093177622758e-02
9.233160169413889840e-03
-2.308290042353466909e-02
-2.769948050824155850e-02
-1.846632033882777968e-02
2.769948050824155850e-02
0.000000000000000000e+00
-3.231606059294855893e-02
4.616580084706889409e-03
4.616580084706889409e-03
4.616580084706889409e-03
-2.677616449130020837e-01
-1.846632033882777968e-02
-9.694818177884556576e-02
-8.309844152472478651e-02
4.616580084706889409e-03
6.924870127060400726e-02
2.539119046588812489e-01
3.370103461836060355e-01
2.954611254212435867e-01
4.385751080471584906e-01
5.032072292330556085e-01
2.400621644047604697e-01
4.201087877083308220e-01
3.600932466071407045e-01
3.093108656753644770e-01
7.386528135531089667e-02
-5.078238093177633861e-02
1.200310822023802348e-01
-1.246476622870871243e-01
-7.386528135531089667e-02
-1.107979220329663450e-01
-2.215958440659326900e-01
-1.938963635576911315e-01
-1.846632033882772417e-01
-1.431139826259148484e-01
-7.386528135531089667e-02
-9.694818177884556576e-02
-3.693264067765544834e-02
2.354455843200535803e-01
-7.386528135531089667e-02
-7.201864932142814091e-01
-1.324958484310889473e+00
-1.301875583887354804e+00
-2.954611254212436422e-01
1.800466233035703301e+00
5.322916837667092338e+00
8.434491814759565997e+00
4.584264024113983815e+00
1.255709783040285465e+00
4.616580084706944920e-03
-9.279325970260933198e-01
-1.237243462701457908e+00
-7.155699131295745197e-01
-4.478082682165724360e-01
-4.847409088942278843e-01
-5.170569694871763877e-01
-4.616580084706932152e-01
-5.493730300801249467e-01
-5.586061902495387255e-01
-4.939740690636417186e-01
-5.355232898260041674e-01
-5.401398699107110568e-01
-5.078238093177624979e-01
-5.078238093177624979e-01
-5.493730300801249467e-01
-5.770725105883665051e-01
-5.863056707577803950e-01
-6.417046317742636230e-01
-6.370880516895566226e-01
-6.370880516895566226e-01
-7.709688741460576367e-01
-7.848186144001785269e-01
-8.448341555013685333e-01
-8.586838957554893126e-01
-8.540673156707823122e-01
-8.817667961790240927e-01
-8.817667961790240927e-01
-9.186994368566794300e-01
-8.771502160943172033e-01
-8.263678351625409757e-01
-7.017201728754536294e-01
-6.786372724519189603e-01
-3.600932466071407045e-01
-3.323937660988991460e-01
-1.615803029647426281e-01
2.308290042353466909e-02
8.309844152472478651e-02
1.015647618635525107e-01
8.309844152472478651e-02
2.539119046588812489e-01
2.400621644047604697e-01
2.862279652518298079e-01
3.046942855906575875e-01
2.215958440659328010e-01
2.446787444894674701e-01
2.262124241506396904e-01
1.846632033882772972e-01
2.031295237271050214e-01
2.446787444894674701e-01
1.985129436423980764e-01
1.985129436423980764e-01
2.446787444894674701e-01
1.800466233035703523e-01
1.107979220329664005e-01
1.200310822023802348e-01
2.769948050824161401e-02
-3.693264067765544834e-02
1.846632033882772417e-02
1.846632033882772417e-02
0.000000000000000000e+00
5.078238093177628310e-02
5.078238093177628310e-02
2.769948050824161401e-02
-9.233160169413834328e-03
2.308290042353466909e-02
0.000000000000000000e+00
1.384974025412083476e-02
2.308290042353466909e-02
2.308290042353466909e-02
0.000000000000000000e+00
9.233160169413889840e-03
2.308290042353466909e-02
-1.846632033882772417e-02
-4.616580084706931042e-02
-9.233160169413834328e-03
-5.078238093177622758e-02
0.000000000000000000e+00
2.308290042353466909e-02
-2.308290042353461358e-02
-1.846632033882772417e-02
-4.616580084706889409e-03
0.000000000000000000e+00
0.000000000000000000e+00
1.800466233035703523e-01
2.492953245741743595e-01
1.938963635576911870e-01
3.185440258447782558e-01
5.355232898260040564e-01
4.616580084706932152e-01
4.201087877083307665e-01
4.154922076236238770e-01
2.492953245741743040e-01
4.616580084706928266e-02
0.000000000000000000e+00
0.000000000000000000e+00
0.000000000000000000e+00
0.000000000000000000e+00
-7.386528135531091055e-02
-6.463212118589704847e-02
-7.386528135531091055e-02
-5.078238093177625534e-02
-7.848186144001784159e-02
-5.078238093177625534e-02
0.000000000000000000e+00
-5.539896101648318638e-02
-2.769948050824158625e-02
9.233160169413865553e-03
-3.416269262683129249e-01
-1.131062120753198341e+00
-1.421906666089735038e+00
-1.015647618635524996e+00
4.108756275389169321e-01
2.816113851671228296e+00
7.127999650787502972e+00
6.393963417319100451e+00
2.474486925402915372e+00
4.524248483012793809e-01
-6.140051512660219535e-01
-1.195694241939095459e+00
-7.571191338919368574e-01
-4.062590474542100427e-01
-3.831761470306753736e-01
-4.154922076236239326e-01
-4.339585279624516012e-01
-4.339585279624516012e-01
-4.062590474542100427e-01
-3.739429868612614838e-01
-4.662745885554001601e-01
-3.970258872847961529e-01
-4.247253677930377114e-01
-4.524248483012793809e-01
-4.662745885554001601e-01
-3.139274457600713664e-01
-4.524248483012793809e-01
-4.893574889789348292e-01
-4.662745885554001601e-01
-5.124403894024693873e-01
-5.678393504189526153e-01
-5.447564499954179462e-01
-6.093885711813150641e-01
-6.740206923672120709e-01
-6.924870127060397396e-01
-6.601709521130912917e-01
-6.924870127060397396e-01
-6.647875321977981811e-01
-6.001554110119011742e-01
-5.493730300801249467e-01
-4.662745885554001601e-01
-3.323937660988991460e-01
-2.446787444894673869e-01
-1.754300432188634074e-01
-4.154922076236239326e-02
-2.308290042353465521e-02
0.000000000000000000e+00
1.200310822023802348e-01
1.800466233035703523e-01
1.477305627106218211e-01
1.661968830494495730e-01
1.892797834729842144e-01
1.754300432188634074e-01
1.477305627106218211e-01
1.569637228800356832e-01
1.154145021176732899e-01
7.848186144001784159e-02
1.154145021176732899e-01
1.292642423717940969e-01
9.233160169413864860e-02
9.694818177884559351e-02
6.924870127060397951e-02
3.231606059294852423e-02
2.769948050824159319e-02
1.384974025412080006e-02
-4.616580084706931736e-02
-4.616580084706931736e-02
1.384974025412080006e-02
-4.616580084706931736e-02
-4.616580084706931736e-02
-4.154922076236238632e-02
-6.001554110119011742e-02
-5.078238093177624840e-02
-2.308290042353465521e-02
-3.693264067765545527e-02
-1.384974025412079313e-02
-4.616580084706931042e-03
-1.846632033882772417e-02
0.000000000000000000e+00
-2.769948050824158972e-02
7.386528135531092443e-02
3.693264067765545527e-02
-4.154922076236238632e-02
3.693264067765545527e-02
1.384974025412080006e-02
1.985129436423981042e-01
-1.061813419482594278e-01
0.000000000000000000e+00
-4.616580084706931042e-03
5.078238093177626228e-02
-9.233160169413864860e-02
-1.846632033882772417e-02
-4.154922076236238632e-02
3.231606059294852423e-02
2.769948050824159319e-02
2.769948050824159319e-02
2.308290042353466215e-02
1.846632033882773111e-02
-3.693264067765545527e-02
9.233160169413869023e-03
1.061813419482594278e-01
2.585284847435881939e-01
3.739429868612614838e-01
3.462435063530199253e-01
4.801243288095209394e-01
6.324714716048497332e-01
6.278548915201427327e-01
4.616580084706931597e-01
3.600932466071407045e-01
2.262124241506396627e-01
6.463212118589704847e-02
0.000000000000000000e+00
-1.846632033882775192e-02
1.846632033882775192e-02
-2.769948050824158625e-02
-4.154922076236236550e-02
-5.539896101648317250e-02
-1.477305627106218211e-01
-1.154145021176732622e-01
-8.309844152472478651e-02
-6.924870127060400726e-02
-6.924870127060397951e-02
-4.616580084706889409e-03
-4.154922076236239326e-02
-9.694818177884562127e-02
-5.216735495718833882e-01
-1.320341904226182583e+00
-1.532704588122701495e+00
-1.034113938974352553e+00
5.078238093177624979e-01
3.240839219464266563e+00
7.935901165611215724e+00
5.290600777074144112e+00
1.745067272019220406e+00
-1.708134631341565179e-01
-1.071046579652008335e+00
-9.094662766872656512e-01
-3.785595669459684287e-01
-2.585284847435881939e-01
-3.416269262683129804e-01
-4.385751080471585461e-01
-3.970258872847960974e-01
-3.600932466071406490e-01
-3.970258872847960974e-01
-3.739429868612615393e-01
-4.016424673695031533e-01
-3.831761470306753181e-01
-3.877927271153823185e-01
-3.416269262683129249e-01
-3.924093072000892080e-01
-4.339585279624516012e-01
-3.554766665224338151e-01
-4.247253677930377114e-01
-4.293419478777447118e-01
-4.293419478777446563e-01
-5.032072292330556085e-01
-5.447564499954179462e-01
-5.678393504189527263e-01
-5.678393504189527263e-01
-5.909222508424872844e-01
-6.093885711813150641e-01
-5.770725105883665051e-01
-6.001554110119011742e-01
-5.216735495718833882e-01
-4.616580084706932152e-01
-4.108756275389169876e-01
-2.908445453365367528e-01
-1.661968830494495175e-01
-1.200310822023802904e-01
-3.231606059294855893e-02
4.154922076236239326e-02
9.694818177884556576e-02
1.661968830494495453e-01
1.338808224565010141e-01
1.523471427953287383e-01
1.154145021176732899e-01
1.661968830494495453e-01
1.477305627106218211e-01
1.061813419482594556e-01
1.015647618635525107e-01
1.338808224565010141e-01
1.015647618635525107e-01
5.539896101648317250e-02
9.694818177884556576e-02
6.463212118589700683e-02
4.616580084706928266e-02
9.694818177884556576e-02
2.308290042353466909e-02
1.384974025412077925e-02
-9.233160169413834328e-03
1.846632033882772417e-02
-2.077461038118119663e-01
-3.231606059294850342e-02
-9.233160169413834328e-03
-6.001554110119011742e-02
-3.231606059294850342e-02
-4.616580084706944920e-03
-9.233160169413862084e-02
-5.539896101648317250e-02
1.846632033882772417e-02
0.000000000000000000e+00
-4.154922076236239326e-02
-5.078238093177628310e-02
-4.154922076236239326e-02
-6.924870127060400726e-02
-4.616580084706944920e-03
0.000000000000000000e+00
-1.846632033882772417e-02
9.233160169413834328e-03
1.384974025412077925e-02
-5.078238093177628310e-02
-5.539896101648317250e-02
-2.308290042353466909e-02
-4.616580084706944920e-03
-6.924870127060400726e-02
-4.616580084706944920e-03
3.231606059294850342e-02
4.616580084706944920e-03
-1.384974025412077925e-02
-3.231606059294850342e-02
-2.769948050824155850e-02
-6.924870127060395175e-02
1.384974025412077925e-02
-4.154922076236239326e-02
1.384974025412077925e-02
3.231606059294850342e-02
2.308290042353461358e-02
-4.616580084706933818e-02
2.308290042353461358e-02
4.616580084706928266e-02
1.846632033882772417e-02
7.848186144001784159e-02
2.446787444894673869e-01
3.231606059294852562e-01
3.370103461836060355e-01
3.554766665224337596e-01
4.708911686401070495e-01
6.278548915201427327e-01
6.232383114354358433e-01
5.262901296565902776e-01
4.016424673695030978e-01
2.631450648282951388e-01
1.200310822023802348e-01
-2.308290042353466909e-02
-9.233160169413889840e-03
2.769948050824161401e-02
-2.308290042353466909e-02
-5.078238093177628310e-02
-8.309844152472478651e-02
-1.015647618635525662e-01
-9.233160169413867635e-02
-1.846632033882772417e-02
-2.769948050824161401e-02
-9.233160169413889840e-03
-4.616580084706933818e-02
0.000000000000000000e+00
-9.694818177884556576e-02
-8.586838957554894236e-01
-1.361891124988545032e+00
-1.440372986428562818e+00
-5.262901296565902776e-01
1.477305627106218378e+00
5.013605971991728083e+00
7.077217269855726300e+00
3.453201903360785252e+00
8.494507355860754227e-01
-4.893574889789348292e-01
-1.029497358889645886e+00
-5.539896101648318361e-01
-1.985129436423981319e-01
-2.031295237271050214e-01
-2.169792639812258006e-01
-2.769948050824159180e-01
-2.677616449130020282e-01
-2.769948050824159180e-01
-3.139274457600713664e-01
-6.463212118589706234e-02
-2.123626838965189112e-01
-2.123626838965189112e-01
-2.123626838965189112e-01
-1.938963635576911315e-01
-2.123626838965189112e-01
-2.262124241506396904e-01
-1.985129436423981319e-01
-1.523471427953287938e-01
-2.215958440659328010e-01
-2.539119046588812489e-01
-2.262124241506396904e-01
-3.000777055059505871e-01
-3.323937660988991460e-01
-2.585284847435882494e-01
-3.554766665224338151e-01
-2.723782249977090286e-01
-2.169792639812258006e-01
-2.400621644047604697e-01
-1.938963635576911315e-01
-1.061813419482594556e-01
-1.384974025412077925e-02
0.000000000000000000e+00
0.000000000000000000e+00
0.000000000000000000e+00
0.000000000000000000e+00
0.000000000000000000e+00
0.000000000000000000e+00
4.154922076236238632e-02
1.107979220329663728e-01
1.061813419482594556e-01
6.924870127060397951e-02
6.001554110119012436e-02
1.154145021176733177e-01
1.246476622870871798e-01
1.154145021176733177e-01
7.848186144001786935e-02
1.154145021176733177e-01
7.848186144001786935e-02
3.693264067765545527e-02
7.848186144001786935e-02
0.000000000000000000e+00
5.078238093177626228e-02
6.463212118589706234e-02
-3.693264067765545527e-02
-4.616580084706931736e-02
0.000000000000000000e+00
-5.078238093177624840e-02
-8.771502160943170368e-02
-5.078238093177624840e-02
-4.616580084706931736e-02
-2.308290042353465521e-02
-4.616580084706931736e-02
-4.154922076236238632e-02
-3.693264067765545527e-02
-3.231606059294851729e-02
1.846632033882773111e-02
0.000000000000000000e+00
-2.769948050824158972e-02
1.154145021176733177e-01
1.846632033882773111e-02
0.000000000000000000e+00
4.616580084706937981e-03
1.846632033882773111e-02
1.846632033882773111e-02
3.693264067765545527e-02
2.769948050824159319e-02
1.846632033882773111e-02
2.308290042353466215e-02
2.769948050824159319e-02
2.769948050824159319e-02
1.384974025412080006e-02
3.231606059294852423e-02
3.693264067765545527e-02
2.769948050824159319e-02
-1.384974025412079313e-02
2.769948050824159319e-02
-2.769948050824158972e-02
-2.308290042353465521e-02
2.769948050824159319e-02
4.616580084706937981e-03
-3.693264067765545527e-02
3.693264067765545527e-02
-1.384974025412079313e-02
-5.078238093177624840e-02
-1.846632033882772417e-02
2.769948050824159319e-02
-4.616580084706931736e-02
-1.384974025412079313e-02
-1.846632033882772417e-02
-6.001554110119011742e-02
5.539896101648319332e-02
2.354455843200535525e-01
2.862279652518298079e-01
2.631450648282951388e-01
4.154922076236239326e-01
6.047719910966080636e-01
5.401398699107110568e-01
5.032072292330556085e-01
4.201087877083308220e-01
2.862279652518298079e-01
1.523471427953287660e-01
0.000000000000000000e+00
-4.616580084706931042e-03
4.616580084706931042e-03
-1.384974025412080700e-02
-9.233160169413875962e-03
0.000000000000000000e+00
-6.001554110119013130e-02
-6.924870127060399339e-02
-6.463212118589704847e-02
-5.539896101648317250e-02
-7.848186144001785547e-02
-2.769948050824158625e-02
-2.769948050824158625e-02
-1.892797834729842421e-01
-7.478859737225229676e-01
-1.348041384734424142e+00
-1.454222726682683486e+00
-7.802020343154715265e-01
8.679170559249033134e-01
3.933326232170306191e+00
7.321896014345194992e+00
3.947175972424426860e+00
1.255709783040285688e+00
-2.446787444894674146e-01
-1.020264198720231885e+00
-8.125180949084199744e-01
-4.247253677930377669e-01
-3.785595669459684287e-01
-3.416269262683129804e-01
-3.739429868612614838e-01
-4.524248483012793254e-01
-4.201087877083308775e-01
-3.877927271153823185e-01
-4.201087877083308775e-01
-4.201087877083308775e-01
-3.647098266918476495e-01
-3.877927271153823185e-01
-4.201087877083308775e-01
-3.647098266918476495e-01
-4.016424673695030978e-01
-3.970258872847961529e-01
-4.201087877083308775e-01
-4.662745885554001046e-01
-5.216735495718832771e-01
-4.708911686401071051e-01
-5.124403894024693873e-01
-5.632227703342457259e-01
-5.632227703342457259e-01
-5.678393504189526153e-01
-6.417046317742635120e-01
-5.678393504189526153e-01
-4.893574889789347737e-01
-4.247253677930377669e-01
-3.647098266918476495e-01
-2.677616449130020837e-01
-2.446787444894674146e-01
-1.523471427953287383e-01
-2.769948050824158625e-02
7.848186144001784159e-02
0.000000000000000000e+00
0.000000000000000000e+00
4.616580084706931042e-02
6.924870127060397951e-02
1.477305627106218211e-01
1.246476622870871659e-01
3.231606059294852562e-01
6.463212118589704847e-02
1.292642423717941247e-01
1.615803029647426281e-01
1.615803029647426281e-01
8.771502160943171755e-02
7.848186144001785547e-02
-8.309844152472477263e-02
6.924870127060397951e-02
-4.616580084706931042e-03
-9.233160169413862084e-03
0.000000000000000000e+00
0.000000000000000000e+00
-7.848186144001784159e-02
9.233160169413862084e-03
-4.616580084706931042e-03
-1.384974025412079313e-02
-9.233160169413862084e-03
-2.769948050824158625e-02
-9.233160169413862084e-03
-3.231606059294852423e-02
-2.769948050824158625e-02
-4.616580084706931042e-03
0.000000000000000000e+00
-1.384974025412079313e-02
1.384974025412080700e-02
-4.616580084706931042e-03
9.233160169413862084e-03
5.539896101648318638e-02
6.001554110119013130e-02
1.384974025412080700e-02
9.233160169413862084e-03
2.308290042353466909e-02
6.924870127060399339e-02
6.463212118589704847e-02
4.616580084706932430e-02
3.693264067765546221e-02
8.771502160943171755e-02
8.309844152472477263e-02
5.078238093177626922e-02
3.693264067765546221e-02
9.694818177884557964e-02
6.924870127060399339e-02
7.386528135531091055e-02
1.384974025412079590e-01
7.848186144001785547e-02
1.846632033882773805e-02
1.154145021176733038e-01
5.539896101648318638e-02
1.107979220329663866e-01
2.077461038118119108e-01
3.093108656753644214e-01
3.462435063530199253e-01
3.739429868612614838e-01
5.539896101648319471e-01
6.093885711813150641e-01
5.909222508424873954e-01
4.570414283859862148e-01
4.478082682165724360e-01
4.108756275389169876e-01
3.000777055059505871e-01
1.523471427953287383e-01
5.539896101648318638e-02
-4.616580084706931042e-03
1.384974025412080700e-02
-6.001554110119011048e-02
-3.231606059294851729e-02
0.000000000000000000e+00
-2.308290042353465521e-02
0.000000000000000000e+00
2.308290042353466909e-02
-9.233160169413862084e-03
-1.384974025412079313e-02
6.924870127060399339e-02
-1.615803029647426281e-01
-9.602486576190418788e-01
-1.348041384734424142e+00
-1.047963679228473666e+00
8.309844152472477263e-02
2.058994717779291772e+00
6.541693980029722688e+00
6.860238005874501610e+00
3.051559435991281877e+00
9.694818177884557686e-01
-2.492953245741743595e-01
-1.047963679228473666e+00
-1.057196839397887445e+00
-5.632227703342457259e-01
-3.600932466071407045e-01
-3.508600864377268702e-01
-4.062590474542100427e-01
-4.385751080471585461e-01
-4.154922076236238770e-01
-4.339585279624516012e-01
-4.385751080471585461e-01
-3.877927271153822630e-01
-3.462435063530199253e-01
-3.785595669459684287e-01
-3.924093072000892080e-01
-3.185440258447783113e-01
-4.154922076236238770e-01
-4.662745885554001601e-01
-4.570414283859862703e-01
-4.616580084706932152e-01
-4.662745885554001601e-01
-5.401398699107110568e-01
-5.724559305036596157e-01
-6.601709521130912917e-01
-6.924870127060398506e-01
-6.832538525366259607e-01
-9.186994368566795410e-01
-6.878704326213329612e-01
-6.093885711813150641e-01
-6.093885711813150641e-01
-5.401398699107110568e-01
-4.062590474542100427e-01
-3.185440258447783113e-01
-1.661968830494495730e-01
-3.693264067765546221e-02
0.000000000000000000e+00
0.000000000000000000e+00
3.693264067765550385e-02
1.246476622870872353e-01
1.107979220329663450e-01
1.246476622870872353e-01
1.938963635576911315e-01
1.800466233035703523e-01
1.107979220329663450e-01
1.754300432188634629e-01
2.677616449130020282e-01
1.938963635576911315e-01
1.477305627106217933e-01
1.246476622870872353e-01
1.384974025412080145e-01
1.154145021176733454e-01
8.309844152472478651e-02
1.107979220329663450e-01
1.200310822023802348e-01
1.384974025412080145e-01
5.539896101648322801e-02
-5.078238093177622758e-02
4.616580084706944920e-03
-9.233160169413834328e-03
9.233160169413889840e-03
4.616580084706933818e-02
-4.154922076236239326e-02
-8.771502160943167592e-02
-2.308290042353461358e-02
9.233160169413889840e-03
2.308290042353466909e-02
2.308290042353466909e-02
6.001554110119011742e-02
4.616580084706944920e-03
5.078238093177628310e-02
5.539896101648322801e-02
-1.384974025412077925e-02
-4.616580084706889409e-03
0.000000000000000000e+00
-2.308290042353461358e-02
-2.308290042353461358e-02
-9.233160169413834328e-03
6.924870127060400726e-02
8.309844152472478651e-02
-3.231606059294850342e-02
-2.308290042353461358e-02
-9.233160169413834328e-03
-2.769948050824155850e-02
1.107979220329663450e-01
2.262124241506396904e-01
2.908445453365366973e-01
2.816113851671228629e-01
3.277771860141922011e-01
4.985906491483486636e-01
5.170569694871762767e-01
4.524248483012793254e-01
4.431916881318654355e-01
3.046942855906574765e-01
1.754300432188634074e-01
0.000000000000000000e+00
-1.846632033882772417e-02
9.233160169413862084e-03
0.000000000000000000e+00
-2.769948050824158625e-02
-2.769948050824158625e-02
-6.924870127060397951e-02
-6.463212118589703459e-02
-1.154145021176733038e-01
-1.015647618635525107e-01
-7.848186144001785547e-02
-6.463212118589704847e-02
-2.769948050824160013e-02
-3.231606059294854505e-02
-3.416269262683129804e-01
-1.015647618635524996e+00
-1.477305627106218378e+00
-1.154145021176733010e+00
4.524248483012793809e-01
2.552968786842933380e+00
6.500144759267359795e+00
7.308046274091073435e+00
2.885362552941832526e+00
7.617357139766437468e-01
-2.954611254212436977e-01
-1.107979220329663672e+00
-1.052580259313180555e+00
-6.140051512660220645e-01
-4.339585279624516567e-01
-4.939740690636417741e-01
-4.893574889789348292e-01
-4.939740690636417741e-01
-4.939740690636417741e-01
-4.939740690636417741e-01
-4.662745885554001601e-01
-4.939740690636417741e-01
-4.755077487248139945e-01
-5.124403894024694983e-01
-5.124403894024694983e-01
-6.140051512660220645e-01
-5.678393504189527263e-01
-5.170569694871763877e-01
-6.093885711813150641e-01
-6.832538525366259607e-01
-6.832538525366259607e-01
-7.617357139766438578e-01
-8.079015148237130850e-01
-7.802020343154715265e-01
-8.125180949084200854e-01
-9.140828567719725406e-01
-9.048496966025587618e-01
-8.679170559249032024e-01
-8.540673156707824232e-01
-7.663522940613507473e-01
-8.494507355860755338e-01
-6.093885711813150641e-01
-4.985906491483486636e-01
-3.693264067765545944e-01
-2.262124241506396904e-01
-8.309844152472478651e-02
0.000000000000000000e+00
3.231606059294853117e-02
7.848186144001786935e-02
1.523471427953287660e-01
2.123626838965188834e-01
2.123626838965188834e-01
2.123626838965188834e-01
1.569637228800357109e-01
6.463212118589703459e-02
1.154145021176733177e-01
1.200310822023802626e-01
1.384974025412079868e-01
1.569637228800357109e-01
1.661968830494495453e-01
6.463212118589703459e-02
8.309844152472475876e-02
4.154922076236239326e-02
9.233160169413862084e-03
2.308290042353466909e-02
3.231606059294853117e-02
1.846632033882772417e-02
-3.231606059294853117e-02
4.616580084706944920e-03
-1.846632033882772417e-02
-9.233160169413862084e-03
-3.693264067765544834e-02
2.769948050824158625e-02
0.000000000000000000e+00
1.846632033882772417e-02
4.616580084706931042e-02
1.846632033882772417e-02
2.769948050824158625e-02
6.463212118589703459e-02
6.924870127060397951e-02
3.231606059294853117e-02
3.231606059294853117e-02
0.000000000000000000e+00
-5.078238093177625534e-02
9.233160169413862084e-03
-1.384974025412080700e-02
-6.924870127060397951e-02
-6.001554110119011742e-02
-2.769948050824158625e-02
1.846632033882772417e-02
-3.231606059294853117e-02
-2.769948050824158625e-02
-6.001554110119011742e-02
-6.463212118589703459e-02
-2.769948050824158625e-02
1.384974025412079590e-01
2.908445453365366973e-01
3.508600864377268147e-01
3.277771860141921456e-01
4.062590474542100427e-01
5.493730300801249467e-01
4.985906491483486636e-01
4.616580084706932152e-01
3.323937660988990905e-01
1.938963635576911593e-01
1.846632033882772417e-02
-1.384974025412079660e-02
-1.384974025412079660e-02
2.769948050824159319e-02
-3.693264067765545527e-02
-6.001554110119012436e-02
-4.616580084706931736e-02
-1.154145021176733177e-01
-1.708134631341564902e-01
-9.694818177884557964e-02
-6.924870127060399339e-02
-4.616580084706932430e-02
9.233160169413875962e-03
-6.001554110119010355e-02
-1.338808224565010141e-01
-7.894351944848854163e-01
-1.366507705073251921e+00
-1.431139826259149039e+00
-8.817667961790239817e-01
1.149528441092025899e+00
4.422683721149240910e+00
8.139030689338321523e+00
4.981289911398779857e+00
1.260326363124992355e+00
-2.862279652518297524e-01
-1.140295280922612342e+00
-1.112595800414370784e+00
-5.770725105883665051e-01
-3.277771860141921456e-01
-4.293419478777447118e-01
-5.124403894024694983e-01
-4.939740690636417186e-01
-4.801243288095209394e-01
-5.309067097412971670e-01
-5.078238093177624979e-01
-4.293419478777447118e-01
-4.755077487248139390e-01
-4.524248483012793809e-01
-4.293419478777447118e-01
-4.801243288095209394e-01
-4.662745885554001601e-01
-4.385751080471584906e-01
-4.755077487248139390e-01
-4.801243288095209394e-01
-5.078238093177624979e-01
-5.493730300801249467e-01
-6.278548915201427327e-01
-6.924870127060398506e-01
-6.278548915201427327e-01
-7.109533330448675192e-01
-7.340362334684021883e-01
-6.647875321977981811e-01
-6.601709521130912917e-01
-5.770725105883665051e-01
-5.032072292330556085e-01
-4.247253677930377114e-01
-3.000777055059505871e-01
-2.215958440659327455e-01
-1.292642423717940692e-01
-5.539896101648318638e-02
5.078238093177624840e-02
1.246476622870871659e-01
1.338808224565010141e-01
1.338808224565010141e-01
1.661968830494495453e-01
1.431139826259149039e-01
1.754300432188634074e-01
2.031295237271050214e-01
1.431139826259149039e-01
1.431139826259149039e-01
1.431139826259149039e-01
1.846632033882772694e-01
1.384974025412079590e-01
8.309844152472477263e-02
1.015647618635525107e-01
7.386528135531091055e-02
6.924870127060397951e-02
6.001554110119011742e-02
9.233160169413862084e-03
-4.616580084706931042e-03
1.846632033882772417e-02
3.693264067765545527e-02
-2.769948050824160013e-02
4.616580084706931042e-03
-4.616580084706931042e-03
-1.384974025412079313e-02
-9.233160169413862084e-03
2.308290042353465521e-02
-4.616580084706931042e-03
-9.233160169413862084e-03
1.846632033882772417e-02
3.693264067765545527e-02
2.308290042353465521e-02
2.769948050824158972e-02
-3.231606059294853117e-02
-6.924870127060397951e-02
1.384974025412079313e-02
-4.616580084706931042e-03
-2.769948050824160013e-02
0.000000000000000000e+00
-1.661968830494495730e-01
2.308290042353465521e-02
-9.233160169413862084e-03
1.754300432188634074e-01
0.000000000000000000e+00
-9.233160169413862084e-03
-4.616580084706931042e-03
1.846632033882772417e-02
-4.616580084706931042e-03
-4.616580084706931042e-03
1.246476622870871659e-01
2.723782249977089731e-01
3.693264067765545389e-01
3.924093072000892080e-01
4.570414283859862703e-01
6.555543720283844022e-01
6.047719910966081747e-01
4.616580084706932152e-01
3.785595669459684287e-01
1.892797834729841866e-01
6.001554110119011048e-02
0.000000000000000000e+00
-4.616580084706944920e-03
4.616580084706944920e-03
0.000000000000000000e+00
-2.769948050824158625e-02
-4.154922076236239326e-02
-1.061813419482594278e-01
-1.431139826259148762e-01
-8.771502160943170368e-02
-1.292642423717940692e-01
-1.246476622870871520e-01
-1.384974025412077925e-02
0.000000000000000000e+00
-3.693264067765544834e-02
-6.694041122825051815e-01
-1.237243462701457908e+00
-1.389590605496786591e+00
-9.740983978731626580e-01
8.586838957554894236e-01
3.914859911831478190e+00
7.695839001206455698e+00
5.069004933008211644e+00
1.348041384734424142e+00
-2.631450648282951388e-01
-1.015647618635524996e+00
-8.586838957554893126e-01
-3.370103461836060355e-01
-2.677616449130020282e-01
-3.277771860141921456e-01
-3.416269262683129249e-01
-3.416269262683129249e-01
-3.508600864377268147e-01
-4.154922076236239326e-01
-3.554766665224337596e-01
-3.600932466071407601e-01
-3.185440258447783113e-01
-3.277771860141922011e-01
-3.185440258447783113e-01
-3.739429868612614283e-01
-3.739429868612614283e-01
-3.739429868612614838e-01
-3.877927271153823741e-01
-4.154922076236238770e-01
-4.339585279624516567e-01
-4.431916881318654355e-01
-4.985906491483486636e-01
-5.309067097412971670e-01
-5.724559305036596157e-01
-6.186217313507287319e-01
-6.093885711813149531e-01
-5.816890906730733946e-01
-5.724559305036596157e-01
-5.447564499954180572e-01
-4.431916881318654355e-01
-3.831761470306753181e-01
-3.231606059294852007e-01
-1.708134631341565179e-01
-1.107979220329664005e-01
9.233160169413889840e-03
1.015647618635525107e-01
1.246476622870871798e-01
2.077461038118119663e-01
2.077461038118119663e-01
2.492953245741743595e-01
1.800466233035703800e-01
1.938963635576911593e-01
2.077461038118119663e-01
1.754300432188634351e-01
1.708134631341565179e-01
1.800466233035703800e-01
1.154145021176733454e-01
1.292642423717941247e-01
1.292642423717941247e-01
1.338808224565010696e-01
1.015647618635525107e-01
1.292642423717941247e-01
9.233160169413867635e-02
6.001554110119011742e-02
6.001554110119011742e-02
5.078238093177628310e-02
0.000000000000000000e+00
-2.308290042353461358e-02
-2.308290042353461358e-02
-7.386528135531089667e-02
-4.154922076236233774e-02
-1.846632033882772417e-02
-3.693264067765544834e-02
1.846632033882777968e-02
3.693264067765550385e-02
6.001554110119011742e-02
-1.846632033882772417e-02
-1.846632033882772417e-02
-4.616580084706889409e-03
-1.384974025412077925e-02
-4.616580084706889409e-03
0.000000000000000000e+00
-1.846632033882772417e-02
-4.616580084706889409e-03
-2.308290042353461358e-02
-4.154922076236233774e-02
6.001554110119011742e-02
9.233160169413889840e-03
1.384974025412083476e-02
1.846632033882777968e-02
3.231606059294855893e-02
3.693264067765550385e-02
9.233160169413889840e-03
0.000000000000000000e+00
3.231606059294855893e-02
-4.616580084706928266e-02
-4.154922076236233774e-02
-2.769948050824155850e-02
1.338808224565010696e-01
2.169792639812258284e-01
3.508600864377268702e-01
3.323937660988990905e-01
3.647098266918475939e-01
5.078238093177624979e-01
5.355232898260040564e-01
4.801243288095209394e-01
4.339585279624516012e-01
2.816113851671228074e-01
5.539896101648317250e-02
-4.616580084706889409e-03
0.000000000000000000e+00
4.616580084706889409e-03
-1.384974025412089027e-02
-2.769948050824166952e-02
-1.569637228800356832e-01
-1.384974025412080145e-01
-9.233160169413889840e-03
-6.924870127060400726e-02
-1.061813419482593446e-01
-1.292642423717940137e-01
-9.694818177884556576e-02
-7.848186144001778608e-02
-7.386528135531089667e-02
-5.632227703342457259e-01
-1.315725324141475472e+00
-1.505005107614460158e+00
-9.510154974496279889e-01
5.863056707577803950e-01
4.071823634711514650e+00
7.160315711380452086e+00
4.459616361826896913e+00
1.491155367360339046e+00
-2.954611254212436977e-01
-1.167994761430853679e+00
-1.080279739821421892e+00
-5.493730300801248356e-01
-3.093108656753644770e-01
-3.693264067765545944e-01
-4.385751080471586016e-01
-3.785595669459683732e-01
-4.570414283859861593e-01
-4.708911686401070495e-01
-4.431916881318654911e-01
-3.924093072000892635e-01
-4.108756275389170431e-01
-3.554766665224337041e-01
-4.339585279624517122e-01
-5.032072292330554975e-01
-4.570414283859861593e-01
-4.616580084706932707e-01
-4.893574889789348292e-01
-5.216735495718832771e-01
-5.262901296565901665e-01
-5.909222508424872844e-01
-6.555543720283844022e-01
-6.186217313507288429e-01
-6.555543720283844022e-01
-6.786372724519190713e-01
-6.509377919436775128e-01
-6.694041122825050705e-01
-6.601709521130912917e-01
-5.586061902495388365e-01
-5.078238093177626089e-01
-4.154922076236239326e-01
-3.185440258447782558e-01
-1.523471427953287938e-01
-1.477305627106217933e-01
-8.309844152472478651e-02
0.000000000000000000e+00
0.000000000000000000e+00
0.000000000000000000e+00
3.693264067765544834e-02
1.384974025412077925e-02
-3.231606059294850342e-02
1.846632033882772417e-02
6.463212118589703459e-02
-9.233160169413834328e-03
-4.154922076236239326e-02
2.769948050824158625e-02
0.000000000000000000e+00
-1.384974025412077925e-02
4.616580084706944920e-03
4.616580084706917164e-03
-5.078238093177625534e-02
-1.384974025412080700e-02
3.693264067765544834e-02
4.616580084706944920e-03
2.769948050824158625e-02
-2.308290042353466909e-02
-4.154922076236239326e-02
-1.384974025412077925e-02
2.769948050824160013e-02
0.000000000000000000e+00
-2.769948050824160013e-02
3.231606059294853117e-02
0.000000000000000000e+00
-3.231606059294853117e-02
0.000000000000000000e+00
2.769948050824159319e-02
0.000000000000000000e+00
3.231606059294852423e-02
4.616580084706931042e-03
4.616580084706931042e-03
2.769948050824159319e-02
6.001554110119011742e-02
5.539896101648318638e-02
1.154145021176732899e-01
1.292642423717940969e-01
1.107979220329663728e-01
1.154145021176732899e-01
1.985129436423980764e-01
1.477305627106218211e-01
1.200310822023802348e-01
1.015647618635525107e-01
1.200310822023802348e-01
2.492953245741743318e-01
4.293419478777447118e-01
4.662745885554001601e-01
4.478082682165724360e-01
5.539896101648318361e-01
7.709688741460576367e-01
7.709688741460576367e-01
7.755854542307646371e-01
7.848186144001785269e-01
7.201864932142814091e-01
3.924093072000892635e-01
2.769948050824159735e-01
2.446787444894673869e-01
2.400621644047604697e-01
1.985129436423980764e-01
1.846632033882772694e-01
1.985129436423980764e-01
2.077461038118119385e-01
2.031295237271049936e-01
1.523471427953287660e-01
1.154145021176732899e-01
1.846632033882772972e-01
1.615803029647426281e-01
1.985129436423980764e-01
2.215958440659327455e-01
-2.723782249977090286e-01
-9.925647182119904377e-01
-1.186461081769681458e+00
-6.140051512660219535e-01
1.154145021176733010e+00
3.813295149967926179e+00
7.954367485950044170e+00
6.084652551643737084e+00
2.095927358456946887e+00
6.001554110119011742e-01
-4.154922076236238770e-01
-1.001797878381404328e+00
-6.140051512660219535e-01
-2.769948050824159180e-01
-2.262124241506396904e-01
-2.215958440659327455e-01
-2.539119046588812489e-01
-2.446787444894674146e-01
-2.400621644047604697e-01
-2.215958440659327455e-01
-2.446787444894674146e-01
-2.169792639812258006e-01
-1.800466233035703523e-01
-1.846632033882772694e-01
-2.492953245741743040e-01
-2.492953245741743040e-01
-2.492953245741743040e-01
-2.631450648282951388e-01
-2.539119046588812489e-01
-3.277771860141921456e-01
-4.293419478777447118e-01
-4.893574889789347737e-01
-4.708911686401070495e-01
-5.262901296565902776e-01
-5.770725105883665051e-01
-5.678393504189527263e-01
-5.586061902495388365e-01
-5.678393504189526153e-01
-5.078238093177624979e-01
-4.985906491483487191e-01
-4.201087877083308220e-01
-2.769948050824159180e-01
-3.231606059294853117e-02
0.000000000000000000e+00
0.000000000000000000e+00
0.000000000000000000e+00
0.000000000000000000e+00
8.771502160943167592e-02
2.262124241506396904e-01
2.585284847435881384e-01
2.677616449130020282e-01
2.677616449130020282e-01
2.492953245741742485e-01
2.308290042353465799e-01
3.046942855906574765e-01
3.046942855906574765e-01
2.354455843200534693e-01
2.446787444894673591e-01
2.446787444894673591e-01
2.354455843200534693e-01
2.077461038118119108e-01
1.800466233035703523e-01
1.107979220329663450e-01
1.338808224565010141e-01
1.384974025412079035e-01
9.233160169413856533e-02
1.384974025412077925e-02
4.616580084706889409e-03
-9.233160169413889840e-03
1.384974025412077925e-02
2.308290042353466909e-02
3.231606059294844790e-02
3.693264067765544834e-02
6.463212118589700683e-02
4.616580084706933818e-02
-2.308290042353466909e-02
-6.463212118589711785e-02
7.386528135531089667e-02
1.846632033882766866e-02
0.000000000000000000e+00
-1.846632033882777968e-02
4.616580084706889409e-03
2.308290042353466909e-02
1.846632033882766866e-02
-4.616580084707000431e-03
-8.309844152472478651e-02
-1.384974025412077925e-02
0.000000000000000000e+00
-4.616580084706933818e-02
7.386528135531089667e-02
2.308290042353465799e-01
2.354455843200534693e-01
2.954611254212435867e-01
4.339585279624514902e-01
5.170569694871763877e-01
4.847409088942278288e-01
3.924093072000893745e-01
3.277771860141921456e-01
2.862279652518298079e-01
1.292642423717941247e-01
0.000000000000000000e+00
-4.616580084706928266e-02
0.000000000000000000e+00
1.384974025412077925e-02
-8.309844152472478651e-02
-1.015647618635525107e-01
-9.694818177884556576e-02
-1.015647618635525107e-01
-1.107979220329664005e-01
-4.154922076236239326e-02
-5.078238093177628310e-02
-6.924870127060395175e-02
-1.384974025412083476e-02
-6.463212118589706234e-02
-5.216735495718833882e-01
-1.209543982193216127e+00
-1.306492163972061693e+00
-6.647875321977982921e-01
9.279325970260932088e-01
3.674797747426717720e+00
8.143647269423027524e+00
5.318300257582386337e+00
1.998979176678101766e+00
4.062590474542099872e-01
-7.709688741460576367e-01
-1.181844501684974569e+00
-8.494507355860754227e-01
-5.309067097412971670e-01
-4.801243288095209394e-01
-4.339585279624516012e-01
-5.216735495718833882e-01
-5.493730300801249467e-01
-3.647098266918476495e-01
-4.893574889789348292e-01
-4.524248483012793254e-01
-4.708911686401070495e-01
-5.124403894024694983e-01
-5.216735495718833882e-01
-4.662745885554001601e-01
-1.708134631341565179e-01
-5.262901296565902776e-01
-5.401398699107110568e-01
-5.586061902495387255e-01
-7.478859737225230786e-01
-6.832538525366259607e-01
-6.694041122825051815e-01
-7.432693936378160782e-01
-7.986683546542993062e-01
-8.263678351625408647e-01
-8.679170559249032024e-01
-9.048496966025586508e-01
-8.771502160943170923e-01
-8.540673156707824232e-01
-8.263678351625408647e-01
-6.878704326213329612e-01
-5.078238093177624979e-01
-4.016424673695030978e-01
-2.539119046588812489e-01
-1.107979220329663728e-01
-3.231606059294853117e-02
6.463212118589706234e-02
1.800466233035703523e-01
2.262124241506396904e-01
2.908445453365366973e-01
3.185440258447782558e-01
2.816113851671228074e-01
2.215958440659327455e-01
2.169792639812258006e-01
2.862279652518297524e-01
3.231606059294852007e-01
2.862279652518297524e-01
2.492953245741743595e-01
1.800466233035703523e-01
2.123626838965189112e-01
2.077461038118119663e-01
1.523471427953287938e-01
1.523471427953287938e-01
1.477305627106218489e-01
1.246476622870871798e-01
8.771502160943173143e-02
2.769948050824161401e-02
4.616580084706944920e-03
4.616580084706944920e-03
-3.693264067765544834e-02
9.233160169413862084e-03
0.000000000000000000e+00
4.616580084706944920e-03
1.384974025412080700e-02
-1.846632033882772417e-02
-3.693264067765544834e-02
1.384974025412080700e-02
0.000000000000000000e+00
-3.693264067765544834e-02
9.233160169413862084e-03
-2.769948050824158625e-02
-3.231606059294850342e-02
5.078238093177628310e-02
2.769948050824161401e-02
4.616580084706944920e-03
-3.693264067765544834e-02
4.616580084706944920e-03
4.616580084706944920e-03
-9.233160169413862084e-03
4.616580084706944920e-03
-4.616580084706917164e-03
-6.001554110119011742e-02
-9.233160169413862084e-03
-1.846632033882772417e-02
-8.309844152472475876e-02
-1.384974025412077925e-02
-1.846632033882772417e-02
4.616580084706944920e-03
1.015647618635525107e-01
2.631450648282951388e-01
2.400621644047604974e-01
3.093108656753644770e-01
4.339585279624516012e-01
5.078238093177624979e-01
4.939740690636417186e-01
4.662745885554001601e-01
3.416269262683129249e-01
1.523471427953287660e-01
3.693264067765544834e-02
0.000000000000000000e+00
0.000000000000000000e+00
0.000000000000000000e+00
-1.846632033882773111e-02
-8.771502160943170368e-02
-8.309844152472478651e-02
-1.846632033882773111e-02
-1.246476622870871798e-01
-1.015647618635525107e-01
-8.309844152472477263e-02
-4.616580084706932430e-02
-5.078238093177625534e-02
0.000000000000000000e+00
-1.338808224565010141e-01
-7.663522940613507473e-01
-1.274176103379113245e+00
-1.389590605496786591e+00
-5.863056707577803950e-01
1.218777142362630128e+00
4.547331383436327812e+00
7.908201685102974388e+00
3.974875452932668196e+00
1.237243462701457908e+00
-1.477305627106218489e-01
-1.061813419482594334e+00
-9.463989173649210995e-01
-4.708911686401071051e-01
-3.185440258447783113e-01
-3.462435063530198698e-01
-3.370103461836060355e-01
-3.924093072000892080e-01
-3.508600864377268147e-01
-2.908445453365366973e-01
-3.370103461836060355e-01
-3.647098266918475939e-01
-3.277771860141921456e-01
-3.093108656753644214e-01
-3.370103461836060355e-01
-3.231606059294852562e-01
-3.693264067765545389e-01
-4.385751080471585461e-01
-4.016424673695030978e-01
-3.970258872847961529e-01
-4.708911686401071051e-01
-4.708911686401071051e-01
-4.939740690636417741e-01
-5.539896101648319471e-01
-5.309067097412972780e-01
-5.678393504189527263e-01
-6.324714716048497332e-01
-6.186217313507289539e-01
-5.447564499954180572e-01
-4.939740690636417741e-01
-4.755077487248139945e-01
-3.647098266918475939e-01
-2.631450648282951388e-01
-1.661968830494495730e-01
-2.769948050824158625e-02
1.384974025412079660e-02
8.309844152472477263e-02
1.615803029647426281e-01
2.215958440659327455e-01
2.400621644047604697e-01
2.816113851671228629e-01
2.400621644047604697e-01
2.077461038118119663e-01
1.938963635576911593e-01
2.400621644047604697e-01
2.354455843200535525e-01
2.354455843200535525e-01
2.262124241506396904e-01
2.215958440659327455e-01
1.661968830494495730e-01
2.123626838965188834e-01
2.585284847435881939e-01
1.661968830494495730e-01
1.477305627106218489e-01
1.846632033882772972e-01
1.061813419482594278e-01
9.694818177884556576e-02
1.154145021176733038e-01
4.154922076236239326e-02
1.892797834729842144e-01
1.384974025412079660e-02
2.308290042353466215e-02
-4.570414283859862703e-01
4.616580084706932777e-03
3.693264067765545527e-02
9.233160169413863819e-03
5.078238093177624840e-02
1.846632033882772764e-02
-4.616580084706931909e-03
9.233160169413863819e-03
7.848186144001784159e-02
9.233160169413863819e-03
-2.308290042353465868e-02
9.233160169413863819e-03
-1.846632033882772764e-02
0.000000000000000000e+00
-1.384974025412079660e-02
-2.308290042353465868e-02
9.233160169413863819e-03
-1.384974025412079660e-02
-1.384974025412079660e-02
0.000000000000000000e+00
-5.078238093177625534e-02
3.231606059294852423e-02
1.384974025412079660e-02
-4.154922076236238632e-02
-9.233160169413865553e-03
0.000000000000000000e+00
-1.846632033882772764e-02
0.000000000000000000e+00
-9.233160169413865553e-03
-3.693264067765545527e-02
-1.384974025412079660e-02
4.154922076236239326e-02
3.693264067765546221e-02
1.384974025412079660e-02
-5.078238093177624840e-02
-6.001554110119011048e-02
-9.233160169413865553e-03
9.233160169413865553e-03
1.384974025412079660e-02
-2.308290042353466215e-02
0.000000000000000000e+00
1.384974025412079660e-02
-4.616580084706931736e-02
-3.231606059294852423e-02
3.231606059294852423e-02
6.924870127060397951e-02
1.569637228800357109e-01
2.446787444894674146e-01
2.446787444894674146e-01
3.139274457600713664e-01
4.708911686401071051e-01
4.801243288095209394e-01
4.201087877083308220e-01
4.154922076236239326e-01
2.769948050824159180e-01
1.015647618635525107e-01
-9.233160169413862084e-03
-3.693264067765546221e-02
-1.846632033882772417e-02
4.616580084706932430e-02
9.233160169413862084e-03
-6.924870127060397951e-02
-1.107979220329663728e-01
-1.061813419482594278e-01
-1.061813419482594556e-01
-1.384974025412080700e-02
-2.769948050824161401e-02
9.233160169413862084e-03
-9.233160169413862084e-03
-9.233160169413862084e-03
-3.831761470306753181e-01
-1.144911861007319009e+00
-1.412673505920321260e+00
-1.228010302532043907e+00
-2.308290042353466909e-02
2.423704544471139144e+00
6.929486707145104951e+00
4.972056751229366078e+00
1.772766752527461964e+00
-9.233160169413862084e-03
-1.038730519059059665e+00
-8.817667961790238706e-01
-3.508600864377268702e-01
-1.846632033882772972e-01
-2.446787444894674146e-01
-2.723782249977089731e-01
-2.262124241506396904e-01
-2.816113851671228629e-01
-2.769948050824159735e-01
-2.631450648282951388e-01
-2.769948050824159735e-01
-2.723782249977089731e-01
-2.492953245741743595e-01
-2.816113851671228629e-01
-2.954611254212436422e-01
-3.046942855906575320e-01
-2.816113851671228629e-01
-3.370103461836060910e-01
-3.000777055059506426e-01
-2.862279652518297524e-01
-3.462435063530198698e-01
-4.062590474542099872e-01
-3.785595669459684287e-01
-4.154922076236238770e-01
-4.755077487248139945e-01
-4.570414283859863258e-01
-4.339585279624516567e-01
-4.339585279624516567e-01
-4.247253677930377669e-01
-3.554766665224337596e-01
-3.046942855906575320e-01
-2.446787444894674146e-01
-1.107979220329663450e-01
-4.154922076236239326e-02
3.693264067765544834e-02
1.107979220329663728e-01
1.200310822023802348e-01
1.384974025412079590e-01
2.077461038118119385e-01
2.077461038118119663e-01
1.892797834729842144e-01
1.892797834729842144e-01
1.384974025412079590e-01
1.615803029647426281e-01
2.123626838965188834e-01
1.708134631341564902e-01
9.694818177884556576e-02
1.154145021176733038e-01
1.246476622870871659e-01
1.154145021176733038e-01
9.694818177884556576e-02
9.694818177884556576e-02
3.693264067765544834e-02
0.000000000000000000e+00
5.539896101648317250e-02
4.616580084706917164e-03
-3.231606059294853117e-02
-6.463212118589706234e-02
-2.769948050824158625e-02
-3.231606059294853117e-02
-4.616580084706933818e-02
4.616580084706917164e-03
-1.384974025412080700e-02
-2.308290042353466909e-02
3.693264067765544834e-02
1.846632033882772417e-02
-2.308290042353466909e-02
1.846632033882772417e-02
5.078238093177625534e-02
2.308290042353464133e-02
9.233160169413862084e-03
-5.539896101648320026e-02
-1.846632033882772417e-02
-4.616580084706933818e-02
-2.308290042353466909e-02
-1.384974025412080700e-02
4.616580084706917164e-03
3.693264067765544834e-02
-1.384974025412080700e-02
-2.308290042353466909e-02
6.924870127060397951e-02
-4.616580084706944920e-03
-2.308290042353466909e-02
0.000000000000000000e+00
9.233160169413862084e-03
0.000000000000000000e+00
2.769948050824158625e-02
1.846632033882772417e-02
-3.693264067765547609e-02
-1.846632033882772417e-02
2.769948050824158625e-02
3.231606059294853117e-02
-9.233160169413862084e-03
1.846632033882772417e-02
0.000000000000000000e+00
-2.308290042353466909e-02
-2.308290042353466909e-02
2.308290042353466909e-02
4.154922076236239326e-02
4.616580084706933818e-02
-4.616580084706917164e-03
-6.463212118589706234e-02
9.233160169413862084e-03
-1.384974025412077925e-02
-4.616580084706944920e-03
-1.384974025412080700e-02
-1.384974025412080700e-02
0.000000000000000000e+00
-4.616580084706944920e-03
9.694818177884557964e-02
1.708134631341564902e-01
1.846632033882772972e-01
2.769948050824159180e-01
4.339585279624516012e-01
4.847409088942278288e-01
5.309067097412971670e-01
4.801243288095209394e-01
4.108756275389169321e-01
2.769948050824159180e-01
1.938963635576911593e-01
9.233160169413862084e-03
-1.384974025412077925e-02
-1.384974025412077925e-02
-1.384974025412077925e-02
0.000000000000000000e+00
-5.539896101648317250e-02
-5.078238093177622758e-02
-2.769948050824155850e-02
-8.771502160943173143e-02
-7.848186144001784159e-02
-3.693264067765544834e-02
-7.848186144001784159e-02
1.384974025412077925e-02
-2.354455843200535803e-01
-9.002331165178517614e-01
-1.218777142362629906e+00
-1.098746060160249893e+00
-1.015647618635525107e-01
1.832782293628651971e+00
5.447564499954180128e+00
6.181600733422582650e+00
2.746865150400624511e+00
8.217512550778338642e-01
-2.354455843200535803e-01
-1.135678700837905453e+00
-9.879481381272835483e-01
-5.539896101648318361e-01
-3.554766665224338151e-01
-3.231606059294852562e-01
-3.416269262683129249e-01
-3.739429868612614838e-01
-3.046942855906574765e-01
-3.277771860141921456e-01
-3.139274457600713664e-01
-3.139274457600713664e-01
-2.816113851671228074e-01
-2.631450648282951388e-01
-2.816113851671228074e-01
-2.585284847435882494e-01
-3.046942855906574765e-01
-2.769948050824159180e-01
-3.093108656753644770e-01
-3.600932466071407045e-01
-3.600932466071407045e-01
-3.739429868612614838e-01
-4.339585279624516012e-01
-5.078238093177624979e-01
-4.985906491483487191e-01
-5.170569694871763877e-01
-5.309067097412971670e-01
-5.309067097412971670e-01
-4.662745885554001601e-01
-4.154922076236239326e-01
-5.170569694871763877e-01
-2.354455843200535803e-01
-1.384974025412079590e-01
-5.078238093177622758e-02
0.000000000000000000e+00
0.000000000000000000e+00
0.000000000000000000e+00
0.000000000000000000e+00
3.231606059294853117e-02
6.924870127060397951e-02
8.771502160943170368e-02
1.015647618635525384e-01
1.061813419482594278e-01
7.386528135531092443e-02
7.386528135531092443e-02
1.015647618635525384e-01
8.771502160943170368e-02
1.246476622870871520e-01
7.386528135531092443e-02
4.616580084706933818e-02
7.848186144001784159e-02
6.924870127060397951e-02
2.769948050824158625e-02
6.001554110119011742e-02
8.309844152472478651e-02
-2.769948050824158625e-02
-1.384974025412080700e-02
-3.693264067765544834e-02
-4.154922076236239326e-02
-6.001554110119011742e-02
-4.154922076236239326e-02
-8.309844152472478651e-02
-8.771502160943171755e-02
-2.308290042353466909e-02
-6.001554110119011742e-02
-8.771502160943171755e-02
-1.846632033882772417e-02
4.616580084706917164e-03
0.000000000000000000e+00
-1.384974025412080700e-02
2.769948050824158625e-02
-2.769948050824158625e-02
-1.846632033882772417e-02
3.693264067765544834e-02
-2.769948050824158625e-02
-1.846632033882772417e-02
5.539896101648317250e-02
1.015647618635525107e-01
6.924870127060397951e-02
8.771502160943173143e-02
8.309844152472478651e-02
7.386528135531089667e-02
6.463212118589703459e-02
1.246476622870871798e-01
1.061813419482594556e-01
8.309844152472478651e-02
6.001554110119011742e-02
6.001554110119011742e-02
1.061813419482594278e-01
1.523471427953287660e-01
1.892797834729842144e-01
2.492953245741743318e-01
3.416269262683129249e-01
3.600932466071407045e-01
3.739429868612614838e-01
5.170569694871763877e-01
6.047719910966080636e-01
5.586061902495387255e-01
5.170569694871763877e-01
3.693264067765545944e-01
1.384974025412080700e-02
0.000000000000000000e+00
-1.892797834729842144e-01
2.769948050824160013e-02
-4.616580084706931042e-03
0.000000000000000000e+00
-4.616580084706931736e-02
-4.616580084706931736e-02
-6.924870127060397951e-02
-6.001554110119011048e-02
-7.386528135531091055e-02
-1.846632033882772417e-02
-1.384974025412079313e-02
-3.693264067765545527e-02
-7.848186144001784159e-02
-4.062590474542099872e-01
-1.112595800414370784e+00
-1.334191644480303474e+00
-9.417823372802140991e-01
4.339585279624516567e-01
2.788414371162986960e+00
7.478859737225230120e+00
5.655310603765991928e+00
2.123626838965189112e+00
3.647098266918476495e-01
-6.370880516895566226e-01
-1.214160562277923239e+00
-8.448341555013685333e-01
-4.247253677930377114e-01
-4.016424673695030978e-01
-4.616580084706932152e-01
-4.339585279624516012e-01
-4.154922076236238770e-01
-4.662745885554001046e-01
-4.062590474542099872e-01
-4.016424673695030978e-01
-4.016424673695030978e-01
-4.247253677930377669e-01
-4.385751080471585461e-01
-4.154922076236238770e-01
-4.570414283859862703e-01
-3.785595669459684842e-01
-4.247253677930377669e-01
-4.847409088942278843e-01
-5.124403894024694983e-01
-5.770725105883665051e-01
-5.909222508424873954e-01
-6.278548915201428438e-01
-6.509377919436775128e-01
-7.248030732989882985e-01
-6.971035927907467400e-01
-6.601709521130912917e-01
-6.324714716048497332e-01
-6.232383114354358433e-01
-5.309067097412972780e-01
-4.570414283859862703e-01
-3.508600864377268147e-01
-2.077461038118119663e-01
-1.431139826259149039e-01
-3.693264067765546221e-02
7.386528135531092443e-02
2.077461038118119385e-01
2.446787444894674146e-01
2.446787444894674146e-01
3.000777055059505871e-01
2.585284847435881939e-01
2.769948050824159180e-01
2.677616449130020837e-01
2.539119046588812489e-01
2.400621644047604697e-01
2.446787444894674146e-01
2.215958440659327455e-01
2.031295237271050214e-01
2.769948050824159180e-01
2.677616449130020282e-01
1.800466233035703523e-01
1.754300432188634351e-01
1.938963635576911593e-01
1.985129436423980764e-01
1.246476622870871659e-01
1.523471427953287660e-01
5.539896101648318638e-02
4.154922076236239326e-02
7.386528135531092443e-02
6.001554110119011742e-02
-9.233160169413862084e-03
2.308290042353466215e-02
2.769948050824159319e-02
-2.308290042353465521e-02
9.233160169413865553e-03
4.154922076236239326e-02
0.000000000000000000e+00
-2.308290042353465521e-02
2.769948050824159319e-02
1.846632033882773111e-02
-2.308290042353465521e-02
2.769948050824159319e-02
-9.233160169413862084e-03
0.000000000000000000e+00
4.616580084706931042e-03
-4.616580084706931042e-03
-3.231606059294851729e-02
0.000000000000000000e+00
-4.616580084706931042e-03
4.616580084706931042e-03
-2.308290042353465521e-02
2.769948050824159319e-02
-2.308290042353465521e-02
-1.384974025412079313e-02
9.233160169413865553e-03
9.233160169413865553e-03
-6.463212118589704847e-02
-3.231606059294853117e-02
-1.384974025412079313e-02
-2.308290042353465521e-02
1.384974025412079660e-02
-1.846632033882772417e-02
-2.769948050824158625e-02
-6.463212118589704847e-02
-9.233160169413862084e-03
9.694818177884556576e-02
2.585284847435881939e-01
3.554766665224337596e-01
3.370103461836060355e-01
4.478082682165723805e-01
6.093885711813150641e-01
5.262901296565902776e-01
4.339585279624516012e-01
3.739429868612614838e-01
2.354455843200535248e-01
7.386528135531091055e-02
0.000000000000000000e+00
0.000000000000000000e+00
0.000000000000000000e+00
-1.846632033882775192e-02
0.000000000000000000e+00
-4.616580084706931042e-02
-7.386528135531092443e-02
-5.078238093177625534e-02
-6.924870127060397951e-02
-5.539896101648320026e-02
-5.078238093177625534e-02
-6.001554110119014518e-02
-6.001554110119014518e-02
-1.200310822023802626e-01
-9.510154974496281000e-01
-1.408056925835614370e+00
-1.454222726682683708e+00
-7.109533330448676303e-01
1.569637228800356832e+00
5.322916837667092338e+00
7.317279434260487214e+00
3.559383245309045041e+00
5.262901296565902776e-01
-6.140051512660219535e-01
-1.107979220329663672e+00
-7.478859737225230786e-01
-2.539119046588812489e-01
-2.400621644047604974e-01
-3.554766665224338151e-01
-3.323937660988991460e-01
-2.769948050824159180e-01
-3.000777055059505871e-01
-2.816113851671229185e-01
-4.108756275389170431e-01
-1.615803029647426003e-01
-2.585284847435882494e-01
-2.539119046588812489e-01
-2.677616449130021392e-01
-2.816113851671229185e-01
-2.816113851671229185e-01
-2.816113851671229185e-01
-3.370103461836060355e-01
-3.370103461836060355e-01
-3.416269262683130359e-01
-4.016424673695031533e-01
-3.924093072000892635e-01
-4.108756275389170431e-01
-4.478082682165724915e-01
-4.801243288095209394e-01
-4.755077487248140500e-01
-4.570414283859862703e-01
-4.201087877083308220e-01
-3.693264067765545944e-01
-3.139274457600713664e-01
-2.031295237271049936e-01
-9.233160169413864860e-02
0.000000000000000000e+00
0.000000000000000000e+00
0.000000000000000000e+00
1.384974025412079660e-02
-1.384974025412079660e-02
7.386528135531091055e-02
1.246476622870871659e-01
8.309844152472477263e-02
7.848186144001784159e-02
8.309844152472477263e-02
8.771502160943170368e-02
7.386528135531091055e-02
6.463212118589704847e-02
7.848186144001784159e-02
8.309844152472477263e-02
5.078238093177624840e-02
9.233160169413863472e-02
3.693264067765545527e-02
4.616580084706931736e-02
7.386528135531091055e-02
4.616580084706931042e-03
-9.233160169413865553e-03
1.846632033882773111e-02
0.000000000000000000e+00
-3.231606059294852423e-02
-5.078238093177625534e-02
-1.384974025412079660e-02
-2.769948050824159319e-02
-4.616580084706932777e-03
4.616580084706931042e-03
4.616580084706931042e-03
6.463212118589704847e-02
1.846632033882773111e-02
1.384974025412079486e-02
4.616580084706931042e-03
1.384974025412079486e-02
-4.616580084706932777e-03
-6.001554110119011742e-02
1.384974025412079486e-02
9.233160169413863819e-03
4.616580084706931736e-02
4.616580084706931042e-03
2.769948050824159319e-02
5.078238093177624840e-02
1.846632033882773111e-02
5.539896101648318638e-02
-3.693264067765545527e-02
-6.924870127060397951e-02
0.000000000000000000e+00
9.233160169413863819e-03
0.000000000000000000e+00
-2.308290042353466215e-02
4.616580084706931042e-03
-2.769948050824159319e-02
-4.616580084706932777e-03
0.000000000000000000e+00
-4.616580084706932430e-02
-4.616580084706932777e-03
-4.616580084706932777e-03
-1.200310822023802348e-01
-1.107979220329663728e-01
-6.463212118589704847e-02
-7.386528135531091055e-02
-5.078238093177625534e-02
1.384974025412079660e-02
8.309844152472477263e-02
1.292642423717940969e-01
9.233160169413863472e-02
2.631450648282951388e-01
3.970258872847961529e-01
4.478082682165723805e-01
4.616580084706931597e-01
3.970258872847961529e-01
2.354455843200535248e-01
1.292642423717940969e-01
9.233160169413862084e-03
-3.693264067765544834e-02
0.000000000000000000e+00
1.384974025412077925e-02
-6.463212118589706234e-02
-7.386528135531095218e-02
-7.386528135531095218e-02
-1.154145021176732899e-01
-1.015647618635525107e-01
-3.693264067765544834e-02
-1.431139826259148484e-01
-6.463212118589700683e-02
0.000000000000000000e+00
-1.107979220329664005e-01
-5.586061902495387255e-01
-1.237243462701457686e+00
-1.440372986428562818e+00
-1.024880778804938997e+00
3.462435063530198698e-01
3.536300344885510150e+00
6.906403806721570504e+00
4.690445366062243160e+00
1.638885930070960839e+00
-1.200310822023802904e-01
-1.061813419482594334e+00
-1.209543982193216127e+00
-7.802020343154714155e-01
-4.708911686401071051e-01
-4.247253677930377669e-01
-5.493730300801249467e-01
-5.493730300801249467e-01
-5.078238093177624979e-01
-5.447564499954180572e-01
-5.493730300801249467e-01
-5.262901296565902776e-01
-4.708911686401071051e-01
-5.355232898260041674e-01
-5.447564499954180572e-01
-4.847409088942278843e-01
-5.447564499954180572e-01
-5.863056707577802840e-01
-5.632227703342456149e-01
-6.324714716048498442e-01
-6.786372724519191824e-01
-7.063367529601607409e-01
-7.617357139766438578e-01
-7.709688741460576367e-01
-7.617357139766438578e-01
-8.032849347390063066e-01
-8.863833762637309821e-01
-9.048496966025587618e-01
-8.217512550778338642e-01
-5.724559305036596157e-01
-7.571191338919369684e-01
-6.370880516895567336e-01
-5.309067097412971670e-01
-4.755077487248139945e-01
-3.554766665224337596e-01
-1.892797834729841866e-01
-1.615803029647426281e-01
-6.463212118589706234e-02
1.200310822023802348e-01
2.308290042353466909e-02
6.924870127060400726e-02
6.463212118589706234e-02
7.386528135531089667e-02
1.246476622870871798e-01
1.754300432188634074e-01
9.694818177884556576e-02
9.233160169413889840e-03
5.078238093177622758e-02
6.001554110119011742e-02
5.078238093177622758e-02
7.386528135531089667e-02
5.078238093177622758e-02
3.231606059294850342e-02
4.616580084706928266e-02
4.154922076236233774e-02
-9.233160169413889840e-03
-4.616580084706933818e-02
-9.233160169413889840e-03
-6.924870127060395175e-02
-4.616580084706933818e-02
-3.231606059294855893e-02
-4.154922076236239326e-02
-1.107979220329664005e-01
-6.463212118589706234e-02
-2.308290042353466909e-02
-3.231606059294855893e-02
-5.078238093177628310e-02
-4.616580084706944920e-03
-1.107979220329664005e-01
-5.078238093177628310e-02
-3.693264067765544834e-02
0.000000000000000000e+00
1.846632033882772417e-02
2.769948050824155850e-02
-1.846632033882772417e-02
-4.616580084706933818e-02
-1.384974025412077925e-02
3.231606059294850342e-02
2.769948050824155850e-02
4.154922076236239326e-02
2.769948050824155850e-02
4.616580084706944920e-03
-3.231606059294855893e-02
2.769948050824155850e-02
1.154145021176732899e-01
2.539119046588812489e-01
3.323937660988990905e-01
3.970258872847961529e-01
3.970258872847961529e-01
5.355232898260041674e-01
5.770725105883665051e-01
5.632227703342457259e-01
5.770725105883665051e-01
5.124403894024693873e-01
3.370103461836060355e-01
1.938963635576911315e-01
4.154922076236233774e-02
1.384974025412077925e-02
6.001554110119011742e-02
6.924870127060400726e-02
2.308290042353466909e-02
5.078238093177622758e-02
-4.616580084706944920e-03
-9.233160169413889840e-03
3.231606059294850342e-02
4.154922076236239326e-02
-9.233160169413889840e-03
0.000000000000000000e+00
5.078238093177622758e-02
-1.061813419482594001e-01
-8.079015148237131960e-01
-1.154145021176733010e+00
-9.971812982966974381e-01
-1.384974025412083476e-02
1.823549133459238192e+00
5.382932378768282788e+00
7.248030732989883873e+00
3.577849565647872598e+00
9.371657571955072097e-01
-1.384974025412077925e-02
-1.038730519059059887e+00
-9.325491771108003203e-01
-4.201087877083308220e-01
-2.908445453365366973e-01
-2.816113851671229185e-01
-2.908445453365367528e-01
-2.769948050824158625e-01
-2.816113851671228629e-01
-2.215958440659327455e-01
-2.077461038118119663e-01
-2.262124241506396349e-01
-1.015647618635524552e-01
-2.769948050824155850e-02
-2.215958440659327455e-01
-2.492953245741743040e-01
-2.354455843200535248e-01
-3.277771860141922011e-01
-3.416269262683129804e-01
-3.046942855906575320e-01
-3.416269262683129804e-01
-4.708911686401071051e-01
-4.616580084706932152e-01
-5.170569694871762767e-01
-5.909222508424873954e-01
-5.909222508424873954e-01
-5.816890906730733946e-01
-5.909222508424873954e-01
-5.447564499954180572e-01
-4.939740690636416631e-01
-4.339585279624515457e-01
-3.600932466071406490e-01
-1.523471427953287383e-01
-2.769948050824155850e-02
0.000000000000000000e+00
0.000000000000000000e+00
0.000000000000000000e+00
0.000000000000000000e+00
0.000000000000000000e+00
7.848186144001784159e-02
3.693264067765544834e-02
4.154922076236239326e-02
7.386528135531089667e-02
9.233160169413862084e-02
6.924870127060400726e-02
1.246476622870871798e-01
6.924870127060400726e-02
5.078238093177625534e-02
7.386528135531092443e-02
3.231606059294853117e-02
7.848186144001786935e-02
6.463212118589703459e-02
3.693264067765544834e-02
2.769948050824158625e-02
0.000000000000000000e+00
-4.154922076236239326e-02
-3.231606059294853117e-02
-1.384974025412080700e-02
-4.154922076236239326e-02
-1.200310822023802487e-01
-1.292642423717941247e-01
-6.924870127060397951e-02
-1.200310822023802487e-01
-1.154145021176733177e-01
-3.231606059294853117e-02
-4.154922076236239326e-02
-3.231606059294853117e-02
-4.616580084706944920e-03
0.000000000000000000e+00
-5.078238093177625534e-02
0.000000000000000000e+00
1.384974025412077925e-02
-1.384974025412080700e-02
-5.078238093177625534e-02
0.000000000000000000e+00
2.769948050824158625e-02
5.539896101648320026e-02
5.078238093177625534e-02
-1.384974025412080700e-02
4.616580084706917164e-03
3.231606059294850342e-02
3.231606059294850342e-02
2.769948050824158625e-02
3.231606059294850342e-02
2.308290042353464133e-02
7.848186144001781384e-02
2.169792639812257729e-01
3.416269262683129249e-01
3.693264067765544834e-01
4.939740690636417186e-01
6.232383114354358433e-01
6.186217313507288429e-01
5.678393504189526153e-01
5.863056707577802840e-01
3.831761470306753736e-01
2.031295237271049936e-01
1.061813419482594278e-01
2.769948050824158625e-02
2.769948050824158625e-02
2.308290042353466909e-02
-9.233160169413862084e-03
-5.539896101648317250e-02
-2.769948050824158625e-02
-2.308290042353466909e-02
1.846632033882772417e-02
-1.154145021176733038e-01
-3.231606059294853117e-02
-2.723782249977090286e-01
3.231606059294853117e-02
8.771502160943173143e-02
-2.908445453365366973e-01
-9.925647182119903267e-01
-1.246476622870871687e+00
-8.494507355860755338e-01
4.801243288095209394e-01
2.802264111417107628e+00
7.012585148669829849e+00
6.089269131728443973e+00
2.308290042353466021e+00
5.724559305036596157e-01
-4.755077487248140500e-01
-1.043347099143766554e+00
-6.186217313507289539e-01
-4.385751080471585461e-01
-2.262124241506396627e-01
-2.077461038118119385e-01
-1.892797834729842144e-01
-1.569637228800356832e-01
-1.938963635576911315e-01
-1.431139826259149039e-01
-1.569637228800356832e-01
-1.431139826259149039e-01
-9.233160169413862084e-02
-7.848186144001784159e-02
-9.694818177884556576e-02
-8.771502160943170368e-02
-9.233160169413862084e-02
-1.431139826259149039e-01
-9.233160169413862084e-02
-1.015647618635525107e-01
-1.431139826259149039e-01
-2.031295237271049936e-01
-1.661968830494495453e-01
-3.185440258447783113e-01
-2.769948050824159180e-01
-2.400621644047604697e-01
-2.677616449130020282e-01
-2.215958440659327455e-01
-1.569637228800356832e-01
-1.200310822023802210e-01
0.000000000000000000e+00
0.000000000000000000e+00
0.000000000000000000e+00
0.000000000000000000e+00
0.000000000000000000e+00
0.000000000000000000e+00
4.616580084706889409e-03
2.769948050824155850e-02
1.154145021176733454e-01
8.771502160943167592e-02
7.848186144001789710e-02
1.292642423717941247e-01
1.384974025412079035e-01
1.015647618635525662e-01
1.523471427953287938e-01
1.292642423717941247e-01
1.200310822023803459e-01
1.384974025412079035e-01
1.569637228800356832e-01
9.233160169413867635e-02
1.846632033882777968e-02
8.309844152472478651e-02
8.309844152472478651e-02
4.616580084706933818e-02
3.231606059294855893e-02
1.384974025412077925e-02
9.233160169413889840e-03
-4.616580084706889409e-03
0.000000000000000000e+00
-6.001554110119011742e-02
-6.001554110119011742e-02
-1.384974025412077925e-02
1.384974025412077925e-02
-7.848186144001778608e-02
1.384974025412077925e-02
-4.616580084706933818e-02
-1.384974025412077925e-02
4.616580084707000431e-03
0.000000000000000000e+00
-3.231606059294855893e-02
1.384974025412077925e-02
-4.616580084706889409e-03
-2.769948050824155850e-02
1.384974025412077925e-02
9.233160169413889840e-03
-1.384974025412077925e-02
-9.233160169413889840e-03
1.384974025412077925e-02
1.846632033882777968e-02
-4.616580084706889409e-03
4.616580084707000431e-03
1.384974025412077925e-02
9.233160169413889840e-03
1.384974025412077925e-02
0.000000000000000000e+00
-3.231606059294855893e-02
3.693264067765544834e-02
2.308290042353466909e-02
-3.231606059294855893e-02
4.154922076236244877e-02
-1.384974025412077925e-02
-3.693264067765544834e-02
-5.078238093177622758e-02
-1.384974025412077925e-02
-2.769948050824155850e-02
-6.001554110119011742e-02
6.463212118589711785e-02
1.800466233035703523e-01
2.077461038118120218e-01
2.631450648282951388e-01
4.154922076236239326e-01
4.893574889789348292e-01
4.154922076236240436e-01
3.323937660988991460e-01
2.631450648282950278e-01
7.848186144001789710e-02
0.000000000000000000e+00
-2.769948050824166952e-02
-3.231606059294844790e-02
4.154922076236244877e-02
0.000000000000000000e+00
-2.769948050824155850e-02
-1.384974025412077925e-02
-2.308290042353466909e-02
-1.061813419482594001e-01
-7.386528135531089667e-02
-9.233160169413889840e-03
-2.308290042353466909e-02
-5.078238093177628310e-02
-3.231606059294855893e-02
-1.938963635576911315e-01
-9.325491771108003203e-01
-1.315725324141475694e+00
-1.408056925835614370e+00
-7.940517745695923058e-01
1.597336709308598390e+00
5.484497140631835244e+00
7.802020343154715931e+00
3.817911730052633068e+00
7.432693936378159671e-01
-5.586061902495387255e-01
-1.001797878381404328e+00
-5.493730300801249467e-01
-1.938963635576911870e-01
-2.215958440659327733e-01
-1.985129436423981042e-01
-2.677616449130020837e-01
-2.816113851671228629e-01
-2.677616449130020837e-01
-2.631450648282951388e-01
-2.677616449130020837e-01
-2.077461038118119663e-01
-2.677616449130020837e-01
-2.723782249977090286e-01
-2.677616449130020837e-01
-2.816113851671228629e-01
-3.185440258447783113e-01
-3.000777055059505871e-01
-2.539119046588812489e-01
-2.769948050824159180e-01
-3.231606059294852562e-01
-3.277771860141921456e-01
-3.370103461836060355e-01
-3.785595669459684287e-01
-3.600932466071407045e-01
-3.693264067765545944e-01
-4.339585279624516012e-01
-4.062590474542100427e-01
-3.647098266918476495e-01
-3.600932466071407045e-01
-2.631450648282951388e-01
-1.431139826259149039e-01
-1.061813419482594556e-01
-4.154922076236240713e-02
1.061813419482594556e-01
1.569637228800356832e-01
2.354455843200535248e-01
2.400621644047604697e-01
2.769948050824159180e-01
2.723782249977089731e-01
2.954611254212436422e-01
3.277771860141922011e-01
3.508600864377268147e-01
3.093108656753644214e-01
3.323937660988990905e-01
4.570414283859862148e-01
1.892797834729841866e-01
2.723782249977089731e-01
2.677616449130020282e-01
2.077461038118119108e-01
2.400621644047604697e-01
1.846632033882772972e-01
1.661968830494495730e-01
1.477305627106218489e-01
1.800466233035703523e-01
1.384974025412079590e-01
1.061813419482594417e-01
1.154145021176733038e-01
1.246476622870871659e-01
7.386528135531091055e-02
6.924870127060399339e-02
7.848186144001785547e-02
5.539896101648318638e-02
5.539896101648318638e-02
1.384974025412080700e-02
5.078238093177626922e-02
4.154922076236240713e-02
6.463212118589704847e-02
1.846632033882773805e-02
6.001554110119013130e-02
1.154145021176733038e-01
6.001554110119013130e-02
2.308290042353466909e-02
6.001554110119013130e-02
3.231606059294851729e-02
2.308290042353466909e-02
1.384974025412080700e-02
2.308290042353466909e-02
-9.233160169413862084e-03
2.308290042353466909e-02
4.154922076236240713e-02
-4.616580084706931042e-03
0.000000000000000000e+00
1.384974025412079313e-02
0.000000000000000000e+00
-2.308290042353465521e-02
0.000000000000000000e+00
-4.154922076236238632e-02
-9.694818177884556576e-02
-3.231606059294852423e-02
-6.001554110119011742e-02
-1.846632033882772417e-02
-3.231606059294852423e-02
-8.309844152472477263e-02
-1.523471427953287383e-01
-1.338808224565010141e-01
-7.848186144001784159e-02
2.308290042353465521e-02
1.477305627106218211e-01
1.292642423717940969e-01
1.338808224565010141e-01
2.908445453365367528e-01
4.478082682165724360e-01
4.154922076236238770e-01
3.554766665224337596e-01
3.046942855906575320e-01
1.431139826259149039e-01
0.000000000000000000e+00
0.000000000000000000e+00
0.000000000000000000e+00
0.000000000000000000e+00
-2.769948050824161401e-02
-5.078238093177628310e-02
-7.848186144001784159e-02
-9.694818177884556576e-02
-3.231606059294855893e-02
-1.061813419482594556e-01
-1.384974025412079590e-01
-1.015647618635525107e-01
-6.924870127060400726e-02
-1.523471427953287383e-01
-2.031295237271050769e-01
-7.478859737225229676e-01
-1.343424804649717252e+00
-1.408056925835614370e+00
-7.340362334684022994e-01
9.417823372802140991e-01
4.828942768603451619e+00
7.155699131295745197e+00
3.730196708443201281e+00
1.098746060160249893e+00
-3.924093072000892080e-01
-1.200310822023802348e+00
-1.103362640244956783e+00
-5.863056707577805060e-01
-3.693264067765545389e-01
-4.108756275389169876e-01
-4.154922076236238770e-01
-4.293419478777446563e-01
-4.339585279624516567e-01
-4.062590474542100982e-01
-4.247253677930377669e-01
-4.385751080471585461e-01
-4.108756275389169876e-01
-4.062590474542100982e-01
-4.385751080471585461e-01
-4.570414283859863258e-01
-4.339585279624516567e-01
-4.893574889789347737e-01
-5.262901296565902776e-01
-5.355232898260040564e-01
-5.309067097412971670e-01
-5.955388309271942848e-01
-5.863056707577805060e-01
-6.601709521130914027e-01
-7.063367529601607409e-01
-7.340362334684022994e-01
-7.340362334684022994e-01
-7.340362334684022994e-01
-6.832538525366260718e-01
-6.324714716048496221e-01
-5.447564499954180572e-01
-4.801243288095209949e-01
-3.693264067765545389e-01
-2.769948050824159735e-01
-1.431139826259149594e-01
-9.694818177884556576e-02
0.000000000000000000e+00
0.000000000000000000e+00
0.000000000000000000e+00
1.846632033882772417e-02
6.924870127060397951e-02
7.848186144001784159e-02
9.233160169413864860e-02
2.769948050824158625e-02
5.078238093177625534e-02
2.308290042353466909e-02
5.078238093177625534e-02
1.384974025412080700e-02
1.384974025412080700e-02
3.693264067765544834e-02
2.769948050824158625e-02
0.000000000000000000e+00
3.231606059294853117e-02
1.384974025412080700e-02
0.000000000000000000e+00
-6.463212118589706234e-02
-2.354455843200535248e-01
-6.924870127060395175e-02
-3.231606059294853117e-02
2.769948050824158625e-02
-3.231606059294853117e-02
-4.616580084706933818e-02
-3.693264067765544834e-02
-7.848186144001784159e-02
-4.616580084706917164e-03
0.000000000000000000e+00
6.001554110119011742e-02
-4.616580084706917164e-03
0.000000000000000000e+00
4.154922076236239326e-02
-4.154922076236239326e-02
0.000000000000000000e+00
0.000000000000000000e+00
-2.308290042353466909e-02
4.616580084706944920e-03
1.384974025412080700e-02
-2.769948050824158625e-02
6.924870127060397951e-02
6.463212118589706234e-02
1.384974025412080700e-02
0.000000000000000000e+00
3.231606059294853117e-02
3.231606059294853117e-02
5.078238093177625534e-02
1.384974025412080700e-02
4.616580084706944920e-03
7.386528135531092443e-02
2.308290042353466076e-01
3.046942855906575320e-01
2.908445453365366973e-01
3.462435063530199253e-01
5.032072292330556085e-01
5.262901296565902776e-01
5.032072292330556085e-01
5.032072292330556085e-01
4.016424673695030978e-01
2.077461038118119385e-01
3.231606059294853117e-02
-4.154922076236236550e-02
-3.231606059294850342e-02
2.308290042353464133e-02
-2.769948050824161401e-02
-9.694818177884562127e-02
-9.233160169413867635e-02
-9.694818177884562127e-02
-6.924870127060400726e-02
-3.693264067765544834e-02
2.769948050824155850e-02
-7.386528135531095218e-02
-1.384974025412083476e-02
2.308290042353466909e-02
-2.077461038118119663e-01
-1.107979220329663672e+00
-1.301875583887354804e+00
-1.084896319906129003e+00
9.233160169413834328e-03
2.488336665657036484e+00
6.417046317742635786e+00
6.620175841469740696e+00
2.954611254212436755e+00
6.047719910966080636e-01
-4.016424673695031533e-01
-1.186461081769681458e+00
-1.024880778804938997e+00
-5.539896101648318361e-01
-3.831761470306753736e-01
-3.693264067765545944e-01
-3.831761470306753736e-01
-4.293419478777447118e-01
-3.970258872847961529e-01
-3.693264067765545944e-01
-3.600932466071407045e-01
-3.600932466071407045e-01
-3.416269262683130359e-01
-3.924093072000892635e-01
-3.739429868612614838e-01
-3.739429868612614838e-01
-4.247253677930378224e-01
-5.032072292330556085e-01
-5.032072292330556085e-01
-5.170569694871763877e-01
-5.493730300801249467e-01
-5.955388309271942848e-01
-6.324714716048497332e-01
-7.248030732989882985e-01
-7.525025538072298570e-01
-7.248030732989882985e-01
-7.986683546542991952e-01
-7.155699131295745197e-01
-6.463212118589705124e-01
-6.001554110119011742e-01
-5.170569694871763877e-01
-4.154922076236239326e-01
-3.554766665224338151e-01
-2.123626838965189112e-01
-6.001554110119011742e-02
0.000000000000000000e+00
0.000000000000000000e+00
0.000000000000000000e+00
6.001554110119011742e-02
3.693264067765546221e-02
-4.616580084706934511e-03
8.309844152472478651e-02
6.463212118589706234e-02
3.231606059294852423e-02
1.015647618635525107e-01
6.924870127060397951e-02
7.386528135531089667e-02
1.015647618635525107e-01
1.200310822023802348e-01
8.309844152472478651e-02
2.769948050824159319e-02
2.308290042353466215e-02
0.000000000000000000e+00
3.231606059294852423e-02
1.846632033882773111e-02
-4.154922076236238632e-02
-8.309844152472477263e-02
-6.463212118589704847e-02
-8.309844152472477263e-02
-8.309844152472477263e-02
-4.616580084706931736e-02
-7.386528135531091055e-02
-8.309844152472477263e-02
-3.231606059294852423e-02
-6.463212118589704847e-02
-8.771502160943170368e-02
-7.386528135531091055e-02
-2.769948050824158972e-02
-4.616580084706931736e-02
-3.693264067765545527e-02
6.463212118589706234e-02
6.001554110119012436e-02
6.001554110119012436e-02
7.848186144001784159e-02
3.693264067765545527e-02
3.693264067765545527e-02
3.693264067765545527e-02
3.693264067765545527e-02
3.231606059294852423e-02
6.463212118589706234e-02
7.848186144001784159e-02
2.769948050824159319e-02
3.231606059294852423e-02
4.616580084706931736e-02
2.308290042353466215e-02
-2.769948050824158972e-02
3.231606059294852423e-02
-2.769948050824158972e-02
-6.463212118589704847e-02
7.386528135531089667e-02
2.308290042353465799e-01
2.585284847435881939e-01
2.677616449130020837e-01
4.062590474542100427e-01
5.493730300801248356e-01
5.170569694871763877e-01
5.355232898260040564e-01
4.016424673695030978e-01
2.816113851671228629e-01
1.523471427953287660e-01
0.000000000000000000e+00
-1.846632033882773805e-02
4.616580084706931042e-03
0.000000000000000000e+00
-6.463212118589704847e-02
-6.924870127060399339e-02
-3.231606059294853117e-02
-5.078238093177625534e-02
-4.616580084706932430e-02
-2.769948050824160013e-02
-2.308290042353465521e-02
-6.001554110119013130e-02
-2.769948050824160013e-02
-2.769948050824160013e-02
-5.216735495718832771e-01
-1.269559523294406356e+00
-1.417290086005028149e+00
-1.020264198720232107e+00
4.016424673695030978e-01
3.813295149967925735e+00
7.695839001206455698e+00
5.225968655888246772e+00
1.888181254645135088e+00
-1.292642423717941247e-01
-1.052580259313180555e+00
-1.107979220329663672e+00
-6.047719910966080636e-01
-3.831761470306754291e-01
-3.370103461836060355e-01
-3.323937660988991460e-01
-3.693264067765545944e-01
-3.600932466071407045e-01
-3.877927271153823185e-01
-3.693264067765545944e-01
-3.000777055059505871e-01
-2.215958440659327455e-01
-2.492953245741743595e-01
-3.000777055059505871e-01
-3.139274457600714219e-01
-3.323937660988991460e-01
-3.508600864377268702e-01
-3.831761470306754291e-01
-3.600932466071407045e-01
-4.293419478777446563e-01
-4.478082682165724360e-01
-4.339585279624516567e-01
-5.262901296565902776e-01
-5.216735495718832771e-01
-5.309067097412971670e-01
-5.539896101648318361e-01
-5.078238093177624979e-01
-4.708911686401071051e-01
-4.570414283859863258e-01
-3.924093072000892080e-01
-3.924093072000892080e-01
-2.769948050824159180e-01
-1.846632033882772972e-01
-5.539896101648318638e-02
4.616580084706931042e-03
2.769948050824158625e-02
8.309844152472477263e-02
4.570414283859862703e-01
1.800466233035703523e-01
1.661968830494495453e-01
1.985129436423980764e-01
2.123626838965188834e-01
1.615803029647426281e-01
1.661968830494495453e-01
1.477305627106218211e-01
1.477305627106218211e-01
1.477305627106218211e-01
1.061813419482594278e-01
9.694818177884556576e-02
1.200310822023802348e-01
1.154145021176732899e-01
7.386528135531091055e-02
7.386528135531091055e-02
7.848186144001784159e-02
4.616580084706931042e-03
5.078238093177624840e-02
5.078238093177624840e-02
0.000000000000000000e+00
1.384974025412079313e-02
0.000000000000000000e+00
-3.231606059294853117e-02
-5.078238093177625534e-02
-3.231606059294853117e-02
0.000000000000000000e+00
0.000000000000000000e+00
-4.616580084706931042e-03
4.616580084706931042e-03
1.384974025412079313e-02
0.000000000000000000e+00
0.000000000000000000e+00
-2.308290042353466909e-02
4.616580084706931042e-03
5.078238093177624840e-02
6.924870127060397951e-02
-9.233160169413862084e-03
-2.308290042353466909e-02
0.000000000000000000e+00
-3.231606059294853117e-02
-2.308290042353466909e-02
-4.616580084706931042e-03
-3.231606059294853117e-02
-2.308290042353466909e-02
1.846632033882772417e-02
-4.616580084706931042e-03
-9.233160169413862084e-03
4.616580084706931042e-03
-9.233160169413862084e-03
-4.616580084706931042e-03
2.769948050824158625e-02
2.308290042353465521e-02
-6.001554110119011742e-02
-3.693264067765546221e-02
-9.233160169413862084e-03
0.000000000000000000e+00
0.000000000000000000e+00
5.539896101648317944e-02
0.000000000000000000e+00
0.000000000000000000e+00
4.616580084706931736e-02
2.308290042353465521e-02
4.616580084706931042e-03
1.938963635576911315e-01
2.862279652518298079e-01
2.308290042353466076e-01
3.046942855906574765e-01
5.493730300801249467e-01
5.586061902495387255e-01
4.570414283859862703e-01
4.062590474542100427e-01
2.816113851671228629e-01
1.523471427953287383e-01
0.000000000000000000e+00
-5.078238093177625534e-02
-1.384974025412080700e-02
6.463212118589706234e-02
-4.616580084706944920e-03
-8.771502160943170368e-02
-9.233160169413862084e-03
-2.308290042353466909e-02
-9.694818177884559351e-02
-7.848186144001781384e-02
-1.384974025412077925e-02
-6.924870127060397951e-02
-2.769948050824158625e-02
-6.001554110119008967e-02
-4.385751080471586016e-01
-1.167994761430853679e+00
-1.431139826259148817e+00
-1.200310822023802348e+00
-4.616580084706917164e-03
2.409854804217018476e+00
6.989502248246295402e+00
5.189036015210591657e+00
1.874331514391014641e+00
6.001554110119011742e-02
-1.020264198720231885e+00
-9.787149779578695474e-01
-4.616580084706932707e-01
-2.723782249977090286e-01
-2.723782249977090286e-01
-2.816113851671229185e-01
-2.816113851671229185e-01
-2.816113851671229185e-01
-2.585284847435881384e-01
-3.046942855906575875e-01
-3.323937660988991460e-01
-2.769948050824159180e-01
-2.308290042353466076e-01
-2.816113851671229185e-01
-3.046942855906575875e-01
-2.816113851671229185e-01
-2.769948050824159180e-01
-3.093108656753644770e-01
-2.816113851671229185e-01
-2.816113851671229185e-01
-3.323937660988991460e-01
-3.508600864377268147e-01
-3.831761470306753736e-01
-4.339585279624516012e-01
-4.339585279624516012e-01
-4.154922076236239326e-01
-4.293419478777447118e-01
-3.785595669459684842e-01
-3.693264067765545944e-01
-2.677616449130020282e-01
-2.123626838965188834e-01
-1.292642423717940969e-01
-9.233160169413862084e-03
0.000000000000000000e+00
0.000000000000000000e+00
0.000000000000000000e+00
6.001554110119011048e-02
8.771502160943170368e-02
1.708134631341564624e-01
1.615803029647426281e-01
1.754300432188634074e-01
1.846632033882772972e-01
1.615803029647426281e-01
1.569637228800356832e-01
2.169792639812258006e-01
1.708134631341564624e-01
1.154145021176732899e-01
1.661968830494495453e-01
1.431139826259149039e-01
1.569637228800356832e-01
8.771502160943170368e-02
1.384974025412079590e-01
9.694818177884556576e-02
1.154145021176732899e-01
7.386528135531091055e-02
9.233160169413862084e-03
1.846632033882772417e-02
2.308290042353465521e-02
9.233160169413862084e-03
-7.386528135531091055e-02
-6.924870127060399339e-02
-4.616580084706944920e-03
9.233160169413862084e-03
1.384974025412079313e-02
3.693264067765544834e-02
1.846632033882772417e-02
2.308290042353465521e-02
4.154922076236237938e-02
9.233160169413862084e-03
9.233160169413862084e-03
1.846632033882772417e-02
9.233160169413862084e-03
0.000000000000000000e+00
1.846632033882772417e-02
6.463212118589704847e-02
2.308290042353465521e-02
1.846632033882772417e-02
2.308290042353465521e-02
9.233160169413862084e-03
-4.616580084706944920e-03
2.769948050824158625e-02
-2.308290042353466909e-02
-5.539896101648318638e-02
3.231606059294851729e-02
-9.233160169413875962e-03
-5.539896101648318638e-02
-6.001554110119010355e-02
-4.616580084706931042e-02
-4.616580084706931042e-02
1.846632033882773805e-02
4.616580084706944920e-03
-1.384974025412079313e-02
-1.384974025412079313e-02
1.384974025412080700e-02
-9.233160169413862084e-03
-3.693264067765544834e-02
-1.384974025412079313e-02
-2.308290042353465521e-02
1.846632033882773805e-02
-2.769948050824158625e-02
-1.384974025412079313e-02
8.771502160943171755e-02
1.846632033882772972e-01
2.031295237271050214e-01
1.892797834729842144e-01
3.185440258447783113e-01
4.570414283859862703e-01
3.877927271153822630e-01
4.570414283859862703e-01
3.462435063530199253e-01
1.800466233035703523e-01
0.000000000000000000e+00
0.000000000000000000e+00
0.000000000000000000e+00
-9.233160169413889840e-03
0.000000000000000000e+00
-5.078238093177628310e-02
-9.694818177884556576e-02
-7.386528135531095218e-02
-1.384974025412083476e-02
-9.233160169413862084e-02
-1.015647618635524552e-01
-6.463212118589700683e-02
-3.693264067765544834e-02
-5.539896101648317250e-02
-1.661968830494495175e-01
-8.586838957554892016e-01
-1.269559523294406356e+00
-1.232626882616750796e+00
-3.600932466071406490e-01
1.421906666089735261e+00
4.847409088942279176e+00
6.467828698674411569e+00
2.986927314805384981e+00
8.217512550778338642e-01
-2.816113851671228629e-01
-1.167994761430853679e+00
-9.233160169413863194e-01
-4.385751080471585461e-01
-2.723782249977089731e-01
-2.954611254212436422e-01
-3.185440258447783113e-01
-3.647098266918476495e-01
-3.739429868612614283e-01
-3.693264067765545389e-01
-3.231606059294852007e-01
-3.046942855906575320e-01
-2.769948050824158625e-01
-2.677616449130020837e-01
-3.231606059294852007e-01
-2.539119046588811934e-01
-2.585284847435881939e-01
-3.600932466071406490e-01
-4.016424673695030978e-01
-3.647098266918476495e-01
-4.062590474542099872e-01
-4.616580084706932152e-01
-4.293419478777446563e-01
-5.032072292330556085e-01
-6.047719910966080636e-01
-6.509377919436774018e-01
-5.863056707577802840e-01
-5.909222508424873954e-01
-5.632227703342456149e-01
-4.154922076236238770e-01
-3.554766665224337596e-01
-2.908445453365367528e-01
-1.846632033882772417e-01
-5.078238093177622758e-02
0.000000000000000000e+00
0.000000000000000000e+00
0.000000000000000000e+00
3.693264067765545527e-02
-1.384974025412079486e-02
4.616580084706931736e-02
2.769948050824159319e-02
9.694818177884559351e-02
1.938963635576911593e-01
7.848186144001784159e-02
7.386528135531092443e-02
6.924870127060397951e-02
5.539896101648317944e-02
7.848186144001784159e-02
8.309844152472478651e-02
6.463212118589703459e-02
4.616580084706931736e-02
5.539896101648317944e-02
5.539896101648317944e-02
-1.846632033882773111e-02
3.693264067765545527e-02
4.616580084706931736e-02
1.384974025412079313e-02
3.693264067765545527e-02
4.616580084706931736e-02
-5.078238093177625534e-02
-1.384974025412079660e-02
3.693264067765545527e-02
3.693264067765545527e-02
-2.308290042353466215e-02
-3.231606059294852423e-02
1.846632033882772417e-02
-2.308290042353466215e-02
1.846632033882772417e-02
2.308290042353466215e-02
-1.846632033882773111e-02
-6.924870127060397951e-02
1.384974025412079313e-02
0.000000000000000000e+00
1.846632033882772417e-02
-1.846632033882773111e-02
-3.231606059294852423e-02
-7.386528135531092443e-02
-1.384974025412079660e-02
0.000000000000000000e+00
0.000000000000000000e+00
2.308290042353466215e-02
4.154922076236238632e-02
-6.924870127060397951e-02
-5.539896101648318638e-02
-4.616580084706931042e-03
4.616580084706931042e-03
4.616580084706931736e-02
1.154145021176733177e-01
2.400621644047604974e-01
2.954611254212436422e-01
3.462435063530198698e-01
4.339585279624516012e-01
4.893574889789348292e-01
4.939740690636417186e-01
4.616580084706931597e-01
3.554766665224337596e-01
2.492953245741743318e-01
1.154145021176733038e-01
0.000000000000000000e+00
-2.308290042353466909e-02
2.308290042353466909e-02
-4.616580084706931042e-02
-7.386528135531089667e-02
-2.769948050824158625e-02
-6.924870127060397951e-02
-1.569637228800356832e-01
-5.539896101648317250e-02
-3.231606059294853117e-02
-8.309844152472475876e-02
-9.233160169413862084e-03
-1.384974025412077925e-02
-1.523471427953287660e-01
-1.071046579652008113e+00
-1.232626882616750796e+00
-1.131062120753198341e+00
-1.615803029647426003e-01
1.805082813120410634e+00
5.839973807154269281e+00
7.326512594429900993e+00
3.545533505054923928e+00
1.131062120753198341e+00
-1.246476622870871520e-01
-1.015647618635524996e+00
-1.121828960583784340e+00
-6.786372724519190713e-01
-3.970258872847961529e-01
-3.277771860141922566e-01
-3.924093072000892635e-01
-3.924093072000892635e-01
-3.046942855906575875e-01
-3.462435063530199253e-01
-1.615803029647426003e-01
-3.647098266918477050e-01
-2.816113851671228074e-01
-3.185440258447783668e-01
-3.323937660988991460e-01
-3.139274457600713664e-01
-3.554766665224338151e-01
-3.831761470306753736e-01
-4.108756275389169321e-01
-4.385751080471586016e-01
-5.216735495718833882e-01
-4.939740690636417186e-01
-5.309067097412971670e-01
-6.232383114354358433e-01
-6.694041122825051815e-01
-7.478859737225230786e-01
-7.571191338919368574e-01
-7.386528135531091888e-01
-6.601709521130912917e-01
-6.463212118589705124e-01
-5.770725105883665051e-01
-4.524248483012793809e-01
-3.046942855906575875e-01
-2.123626838965188834e-01
-9.694818177884559351e-02
0.000000000000000000e+00
0.000000000000000000e+00
0.000000000000000000e+00
2.769948050824158625e-02
0.000000000000000000e+00
6.463212118589706234e-02
1.246476622870871798e-01
6.463212118589706234e-02
1.246476622870871798e-01
1.338808224565010141e-01
5.078238093177625534e-02
-1.384974025412077925e-02
1.061813419482594556e-01
6.463212118589706234e-02
6.924870127060397951e-02
1.384974025412079590e-01
9.694818177884556576e-02
5.078238093177625534e-02
4.616580084706931042e-02
1.015647618635525107e-01
3.231606059294853117e-02
-3.693264067765544834e-02
-1.938963635576911593e-01
-8.309844152472478651e-02
-7.848186144001785547e-02
-6.463212118589704847e-02
-3.693264067765544834e-02
-1.846632033882772417e-02
2.077461038118119663e-01
6.001554110119011742e-02
-4.616580084706944920e-03
-2.769948050824158625e-02
-5.539896101648318638e-02
3.139274457600713664e-01
9.233160169413862084e-03
6.924870127060397951e-02
-9.233160169413862084e-03
-3.231606059294853117e-02
-9.233160169413862084e-03
-4.154922076236239326e-02
-4.154922076236239326e-02
6.001554110119011742e-02
5.078238093177625534e-02
-1.846632033882772417e-02
4.616580084706931042e-02
2.308290042353466909e-02
0.000000000000000000e+00
3.231606059294853117e-02
6.924870127060397951e-02
6.001554110119011742e-02
3.693264067765544834e-02
4.616580084706931042e-02
-9.233160169413862084e-03
2.308290042353466909e-02
9.694818177884556576e-02
1.615803029647426281e-01
2.400621644047604697e-01
2.723782249977090286e-01
3.185440258447783113e-01
3.693264067765545389e-01
5.078238093177624979e-01
4.662745885554001046e-01
4.293419478777446563e-01
4.570414283859863258e-01
2.354455843200535248e-01
6.924870127060397951e-02
-4.616580084706932430e-02
0.000000000000000000e+00
0.000000000000000000e+00
-2.308290042353465521e-02
-3.231606059294852423e-02
-6.463212118589704847e-02
-1.246476622870871659e-01
-8.771502160943170368e-02
-6.001554110119011742e-02
-7.386528135531092443e-02
0.000000000000000000e+00
5.539896101648318638e-02
-4.616580084706937981e-03
-1.154145021176733038e-01
-6.694041122825051815e-01
-1.311108744056768582e+00
-1.348041384734424142e+00
-5.678393504189527263e-01
1.158761601261440122e+00
5.115170733855280538e+00
7.972833806288870839e+00
4.210321037252722221e+00
1.384974025412079701e+00
-1.477305627106218489e-01
-1.011031038550818106e+00
-1.080279739821422114e+00
-6.140051512660219535e-01
-3.462435063530199253e-01
-3.785595669459684842e-01
-4.154922076236239326e-01
-3.554766665224338151e-01
-3.462435063530199253e-01
-3.785595669459684842e-01
-3.508600864377268147e-01
-3.508600864377268147e-01
-3.323937660988991460e-01
-3.139274457600713664e-01
-3.139274457600713664e-01
-3.970258872847961529e-01
-4.293419478777447118e-01
-3.231606059294852562e-01
-4.108756275389169321e-01
-4.339585279624516012e-01
-4.201087877083308220e-01
-4.893574889789348292e-01
-4.478082682165723805e-01
-4.801243288095209394e-01
-5.724559305036596157e-01
-5.678393504189527263e-01
-5.770725105883665051e-01
-4.893574889789348292e-01
-4.985906491483487191e-01
-4.478082682165723805e-01
-3.739429868612614838e-01
-3.508600864377268147e-01
-2.262124241506396904e-01
-8.309844152472478651e-02
0.000000000000000000e+00
0.000000000000000000e+00
2.769948050824158625e-02
1.061813419482594278e-01
1.338808224565010419e-01
1.846632033882772694e-01
2.215958440659327733e-01
2.215958440659327733e-01
2.215958440659327733e-01
2.862279652518298079e-01
1.938963635576911593e-01
1.661968830494495453e-01
1.938963635576911593e-01
1.754300432188634351e-01
2.215958440659327733e-01
2.077461038118119385e-01
1.569637228800357109e-01
1.384974025412079868e-01
1.384974025412079868e-01
1.384974025412079868e-01
9.694818177884559351e-02
1.015647618635525384e-01
9.694818177884559351e-02
3.231606059294853117e-02
4.616580084706931042e-02
4.616580084706931042e-02
3.693264067765547609e-02
5.539896101648320026e-02
1.384974025412080700e-02
3.693264067765547609e-02
2.769948050824158625e-02
1.846632033882772417e-02
-8.309844152472475876e-02
3.693264067765547609e-02
1.846632033882772417e-02
6.001554110119014518e-02
0.000000000000000000e+00
1.384974025412080700e-02
9.233160169413862084e-03
1.846632033882772417e-02
9.233160169413862084e-03
1.384974025412080700e-02
0.000000000000000000e+00
-4.616580084706917164e-03
1.846632033882772417e-02
4.616580084706944920e-03
-5.078238093177625534e-02
-5.539896101648317250e-02
4.616580084706944920e-03
-6.463212118589703459e-02
-2.769948050824158625e-02
1.384974025412080700e-02
-5.078238093177625534e-02
-3.231606059294853117e-02
-2.769948050824161401e-02
-3.231606059294853117e-02
-2.769948050824161401e-02
-1.384974025412080700e-02
2.308290042353464133e-02
9.233160169413862084e-03
-4.616580084706944920e-03
-2.769948050824158625e-02
-4.616580084706931042e-02
3.231606059294853117e-02
-9.233160169413862084e-03
-4.616580084706931042e-02
8.309844152472475876e-02
2.539119046588812489e-01
2.585284847435881939e-01
3.093108656753644214e-01
4.985906491483486636e-01
5.816890906730733946e-01
4.524248483012793254e-01
4.662745885554001601e-01
3.185440258447782558e-01
1.477305627106218211e-01
4.616580084706917164e-03
0.000000000000000000e+00
-3.693264067765545527e-02
0.000000000000000000e+00
1.846632033882772764e-02
-1.846632033882773111e-02
-6.463212118589704847e-02
-8.771502160943170368e-02
-7.848186144001784159e-02
-6.924870127060397951e-02
-6.924870127060397951e-02
-7.386528135531091055e-02
-7.386528135531091055e-02
-5.539896101648318638e-02
-2.123626838965188557e-01
-9.048496966025586508e-01
-1.394207185581493480e+00
-1.477305627106218155e+00
-6.601709521130912917e-01
1.228010302532043907e+00
4.852025669026986066e+00
7.294196533836952767e+00
3.083875496584230547e+00
5.909222508424872844e-01
-6.786372724519189603e-01
-1.181844501684974569e+00
-6.601709521130912917e-01
-2.816113851671228629e-01
-2.816113851671228629e-01
-3.093108656753644214e-01
-3.231606059294852562e-01
-3.647098266918476495e-01
-3.647098266918476495e-01
-2.954611254212436422e-01
-2.908445453365366973e-01
-2.954611254212436422e-01
-2.677616449130020282e-01
-2.492953245741743318e-01
-3.600932466071407045e-01
-3.231606059294852562e-01
-2.862279652518297524e-01
-3.046942855906575320e-01
-2.954611254212436422e-01
-3.323937660988990905e-01
-3.924093072000892080e-01
-4.478082682165723805e-01
-4.708911686401070495e-01
-4.616580084706932152e-01
-5.124403894024694983e-01
-4.708911686401070495e-01
-4.478082682165723805e-01
-4.616580084706932152e-01
-3.877927271153822630e-01
-3.462435063530198698e-01
-2.862279652518297524e-01
-2.169792639812258006e-01
-1.154145021176733038e-01
-5.539896101648318638e-02
0.000000000000000000e+00
0.000000000000000000e+00
4.154922076236239326e-02
9.233160169413863472e-02
1.569637228800356832e-01
1.800466233035703800e-01
1.523471427953287660e-01
1.615803029647426281e-01
2.123626838965188834e-01
1.477305627106218211e-01
1.569637228800356832e-01
1.938963635576911593e-01
1.246476622870871659e-01
1.338808224565010141e-01
1.892797834729842421e-01
1.384974025412079590e-01
1.061813419482594417e-01
1.154145021176733038e-01
8.771502160943171755e-02
1.384974025412079313e-02
6.463212118589704847e-02
3.231606059294853117e-02
9.233160169413862084e-03
5.078238093177626922e-02
1.384974025412079313e-02
4.154922076236237938e-02
0.000000000000000000e+00
3.231606059294853117e-02
1.615803029647426281e-01
1.384974025412079313e-02
1.384974025412079313e-02
8.309844152472477263e-02
-4.154922076236238632e-02
0.000000000000000000e+00
4.616580084706931042e-03
-1.384974025412079313e-02
4.154922076236237938e-02
6.463212118589704847e-02
2.308290042353466909e-02
0.000000000000000000e+00
4.616580084706931042e-03
-9.233160169413862084e-03
-2.769948050824159319e-02
3.231606059294853117e-02
-2.769948050824159319e-02
4.616580084706931042e-03
1.384974025412079313e-02
3.231606059294853117e-02
-1.384974025412079313e-02
2.769948050824160013e-02
2.308290042353466909e-02
-4.154922076236238632e-02
-6.001554110119011742e-02
-2.308290042353465521e-02
-2.769948050824159319e-02
4.616580084706931042e-03
-9.233160169413862084e-03
-6.001554110119011742e-02
-7.848186144001784159e-02
4.616580084706931042e-03
-1.846632033882772417e-02
-1.846632033882772417e-02
-6.463212118589704847e-02
0.000000000000000000e+00
9.233160169413862084e-03
-4.616580084706932430e-02
1.384974025412079313e-02
8.771502160943170368e-02
1.892797834729842421e-01
2.308290042353465799e-01
2.215958440659327455e-01
3.924093072000892635e-01
5.355232898260040564e-01
4.524248483012792699e-01
3.462435063530199253e-01
2.539119046588812489e-01
8.771502160943170368e-02
0.000000000000000000e+00
0.000000000000000000e+00
0.000000000000000000e+00
0.000000000000000000e+00
-5.078238093177625534e-02
-5.539896101648317250e-02
-7.848186144001784159e-02
-1.338808224565010419e-01
-1.200310822023802071e-01
-1.015647618635525107e-01
-6.924870127060397951e-02
-3.693264067765547609e-02
0.000000000000000000e+00
-3.693264067765547609e-02
-3.877927271153823741e-01
-1.181844501684974569e+00
-1.574253808885063943e+00
-1.292642423717941025e+00
-1.985129436423981042e-01
2.539119046588812711e+00
6.504761339352067573e+00
5.410631859276524125e+00
2.072844458033412440e+00
1.523471427953287383e-01
-9.233160169413865415e-01
-1.158761601261439900e+00
-8.863833762637309821e-01
-3.877927271153823741e-01
-3.370103461836060355e-01
-4.154922076236239326e-01
-4.570414283859862703e-01
-3.877927271153823741e-01
-4.293419478777447118e-01
-3.647098266918477050e-01
-3.046942855906575875e-01
-3.554766665224338151e-01
-4.385751080471586016e-01
-4.293419478777447118e-01
-4.062590474542100427e-01
-4.431916881318654911e-01
-4.431916881318654911e-01
-4.108756275389170431e-01
-4.524248483012793809e-01
-4.524248483012793809e-01
-4.524248483012793809e-01
-5.863056707577803950e-01
-5.863056707577803950e-01
-5.216735495718833882e-01
-6.001554110119011742e-01
-6.140051512660220645e-01
-6.278548915201428438e-01
-6.370880516895566226e-01
-5.863056707577803950e-01
-4.847409088942279398e-01
-3.785595669459684842e-01
-3.000777055059505871e-01
-1.892797834729842144e-01
-5.539896101648320026e-02
-4.154922076236242101e-02
0.000000000000000000e+00
0.000000000000000000e+00
0.000000000000000000e+00
6.924870127060397951e-02
1.200310822023802348e-01
9.233160169413864860e-02
8.309844152472477263e-02
9.233160169413864860e-02
8.771502160943170368e-02
4.154922076236238632e-02
9.233160169413864860e-02
1.477305627106218211e-01
1.431139826259149039e-01
1.384974025412079590e-01
9.233160169413864860e-02
7.386528135531091055e-02
3.231606059294852423e-02
3.231606059294852423e-02
2.308290042353465868e-02
2.769948050824159319e-02
4.154922076236238632e-02
3.693264067765545527e-02
-4.154922076236238632e-02
-4.154922076236238632e-02
3.231606059294852423e-02
-4.154922076236238632e-02
-9.233160169413865553e-03
-4.154922076236238632e-02
-4.154922076236238632e-02
4.616580084706931042e-03
0.000000000000000000e+00
-2.769948050824159319e-02
-4.616580084706931736e-02
-9.233160169413865553e-03
1.384974025412079486e-02
-1.846632033882773111e-02
-2.769948050824159319e-02
-9.233160169413865553e-03
-1.846632033882773111e-02
0.000000000000000000e+00
7.848186144001784159e-02
0.000000000000000000e+00
2.308290042353465868e-02
4.154922076236238632e-02
-9.233160169413865553e-03
-6.463212118589706234e-02
4.616580084706931042e-03
2.769948050824159319e-02
-1.384974025412080006e-02
-1.846632033882773111e-02
5.539896101648318638e-02
3.231606059294852423e-02
1.846632033882772764e-02
4.616580084706931042e-03
-3.693264067765545527e-02
-2.308290042353466215e-02
0.000000000000000000e+00
0.000000000000000000e+00
1.015647618635525107e-01
1.892797834729842144e-01
2.354455843200535525e-01
2.446787444894674146e-01
3.508600864377268702e-01
4.431916881318654911e-01
4.801243288095209394e-01
4.708911686401071051e-01
4.755077487248139945e-01
3.046942855906575320e-01
1.061813419482594417e-01
4.154922076236238632e-02
-1.846632033882773805e-02
0.000000000000000000e+00
0.000000000000000000e+00
-7.848186144001784159e-02
-1.154145021176733177e-01
-1.107979220329663728e-01
-1.107979220329663728e-01
-1.431139826259149039e-01
-3.970258872847961529e-01
-8.771502160943173143e-02
-5.539896101648320026e-02
-6.001554110119011742e-02
-5.539896101648320026e-02
-5.493730300801249467e-01
-1.315725324141475694e+00
-1.246476622870871687e+00
-6.140051512660220645e-01
9.233160169413863194e-01
4.219554197422135999e+00
7.695839001206455698e+00
4.916657790212882517e+00
1.777383332612168854e+00
1.569637228800356832e-01
-7.340362334684022994e-01
-1.135678700837905453e+00
-7.525025538072298570e-01
-3.739429868612615393e-01
-3.600932466071407601e-01
-3.600932466071407601e-01
-3.416269262683129804e-01
-3.277771860141922011e-01
-3.093108656753644770e-01
-2.862279652518298079e-01
-3.093108656753644770e-01
-3.000777055059505871e-01
-2.723782249977090286e-01
-2.908445453365367528e-01
-3.277771860141922011e-01
-2.631450648282951388e-01
-3.323937660988991460e-01
-3.600932466071407601e-01
-3.462435063530199253e-01
-3.924093072000892080e-01
-4.755077487248139945e-01
-4.524248483012793254e-01
-5.309067097412971670e-01
-5.770725105883665051e-01
-5.678393504189527263e-01
-5.770725105883665051e-01
-6.647875321977982921e-01
-5.909222508424873954e-01
-4.016424673695030978e-01
-4.939740690636417741e-01
-4.662745885554001046e-01
-2.954611254212436422e-01
-1.892797834729842421e-01
-6.463212118589706234e-02
0.000000000000000000e+00
0.000000000000000000e+00
0.000000000000000000e+00
7.848186144001784159e-02
1.754300432188634074e-01
1.754300432188634074e-01
1.015647618635525107e-01
1.754300432188634074e-01
1.708134631341564624e-01
2.077461038118119663e-01
2.262124241506396904e-01
2.262124241506396904e-01
2.215958440659327455e-01
2.262124241506396904e-01
1.800466233035703523e-01
1.846632033882772972e-01
1.338808224565010141e-01
1.523471427953287383e-01
1.107979220329663728e-01
9.694818177884556576e-02
1.523471427953287383e-01
8.309844152472478651e-02
5.078238093177625534e-02
5.539896101648317250e-02
6.001554110119011742e-02
3.231606059294853117e-02
-1.846632033882772417e-02
-3.693264067765546221e-02
0.000000000000000000e+00
7.848186144001784159e-02
3.231606059294853117e-02
-3.693264067765546221e-02
4.616580084706944920e-03
0.000000000000000000e+00
-4.616580084706932430e-02
0.000000000000000000e+00
5.078238093177625534e-02
4.616580084706944920e-03
0.000000000000000000e+00
5.078238093177625534e-02
4.616580084706931042e-02
-4.616580084706932430e-02
-6.001554110119011742e-02
-3.693264067765546221e-02
0.000000000000000000e+00
4.154922076236239326e-02
2.308290042353466909e-02
-2.308290042353465521e-02
-3.231606059294853117e-02
3.231606059294853117e-02
-3.231606059294853117e-02
-6.001554110119011742e-02
-2.769948050824160013e-02
-1.384974025412079313e-02
7.848186144001784159e-02
1.892797834729842421e-01
2.031295237271050214e-01
2.677616449130020282e-01
4.016424673695030978e-01
5.816890906730735056e-01
4.893574889789347737e-01
4.570414283859862703e-01
4.293419478777447118e-01
2.262124241506396627e-01
9.694818177884556576e-02
0.000000000000000000e+00
0.000000000000000000e+00
-6.001554110119011742e-02
0.000000000000000000e+00
-6.463212118589704847e-02
-6.001554110119011742e-02
-8.771502160943171755e-02
-1.431139826259149039e-01
-1.061813419482594417e-01
-9.233160169413864860e-02
-7.386528135531092443e-02
-4.616580084706932430e-02
-2.769948050824160013e-02
-1.015647618635525246e-01
-6.186217313507288429e-01
-1.228010302532043907e+00
-1.343424804649717252e+00
-7.848186144001784159e-01
7.709688741460577477e-01
3.679414327511425054e+00
7.917434845272388166e+00
4.921274370297589407e+00
1.708134631341564846e+00
7.386528135531091055e-02
-9.787149779578696585e-01
-8.125180949084199744e-01
-7.617357139766437468e-01
-4.847409088942278843e-01
-4.524248483012793254e-01
-5.032072292330556085e-01
-5.216735495718832771e-01
-5.032072292330556085e-01
-4.570414283859863258e-01
-4.293419478777447118e-01
-4.570414283859863258e-01
-3.831761470306753736e-01
-4.108756275389169876e-01
-4.524248483012793254e-01
-4.478082682165724360e-01
-4.293419478777447118e-01
-4.708911686401071051e-01
-4.431916881318655466e-01
-4.847409088942278843e-01
-5.216735495718832771e-01
-5.678393504189526153e-01
-5.955388309271941738e-01
-5.909222508424872844e-01
-6.417046317742635120e-01
-6.601709521130912917e-01
-6.186217313507288429e-01
-6.878704326213328502e-01
-6.832538525366259607e-01
-5.816890906730733946e-01
-5.262901296565902776e-01
-4.570414283859863258e-01
-3.554766665224338151e-01
-2.723782249977090286e-01
-1.154145021176733038e-01
-9.233160169413862084e-03
0.000000000000000000e+00
2.308290042353466215e-02
6.924870127060397951e-02
1.477305627106218489e-01
1.708134631341564902e-01
1.754300432188634351e-01
2.123626838965188834e-01
1.846632033882772694e-01
1.431139826259149039e-01
1.800466233035703523e-01
1.708134631341564902e-01
1.523471427953287660e-01
1.661968830494495453e-01
1.615803029647426281e-01
1.154145021176732899e-01
6.001554110119011742e-02
5.539896101648317250e-02
6.001554110119011742e-02
6.001554110119011742e-02
2.308290042353465521e-02
-3.231606059294852423e-02
-4.616580084706932430e-02
-1.846632033882773111e-02
-9.233160169413862084e-03
-3.693264067765545527e-02
4.616580084706931042e-03
0.000000000000000000e+00
-3.693264067765545527e-02
-9.233160169413862084e-03
-5.078238093177625534e-02
1.384974025412079313e-02
-1.384974025412080006e-02
1.384974025412079313e-02
-2.769948050824159319e-02
0.000000000000000000e+00
4.616580084706931042e-03
-4.616580084706932430e-02
-1.384974025412080006e-02
2.769948050824158625e-02
1.384974025412079313e-02
-1.846632033882773111e-02
1.384974025412079313e-02
1.384974025412079313e-02
-3.231606059294852423e-02
-3.693264067765545527e-02
1.384974025412079313e-02
4.616580084706931042e-03
1.846632033882772417e-02
1.384974025412079313e-02
-2.769948050824159319e-02
-4.616580084706937981e-03
1.846632033882772417e-02
-3.231606059294853117e-02
-5.078238093177625534e-02
-4.616580084706937981e-03
2.308290042353465521e-02
-3.231606059294853117e-02
9.233160169413862084e-03
-1.384974025412079313e-02
-4.154922076236238632e-02
-4.616580084706931736e-02
2.308290042353466215e-02
-1.384974025412079313e-02
1.292642423717940969e-01
2.954611254212436422e-01
3.093108656753644214e-01
2.954611254212436977e-01
4.662745885554001601e-01
6.140051512660219535e-01
4.801243288095209394e-01
4.431916881318654911e-01
4.293419478777447118e-01
2.308290042353465799e-01
3.231606059294852423e-02
0.000000000000000000e+00
-1.384974025412079313e-02
9.233160169413862084e-03
-4.616580084706931042e-03
-2.308290042353465521e-02
-1.015647618635524968e-01
0.000000000000000000e+00
-9.233160169413863472e-02
-9.233160169413864860e-02
-7.848186144001784159e-02
-5.539896101648320026e-02
-6.924870127060397951e-02
-7.386528135531092443e-02
-1.661968830494495730e-01
-7.986683546542993062e-01
-1.352657964819131031e+00
-1.454222726682683486e+00
-8.356009953319547545e-01
8.448341555013685333e-01
4.787393547841088726e+00
7.354212074938142329e+00
3.840994630476167515e+00
1.038730519059059665e+00
-6.232383114354358433e-01
-1.163378181346146789e+00
-8.263678351625408647e-01
-3.647098266918476495e-01
-2.908445453365367528e-01
-3.739429868612614838e-01
-3.785595669459684842e-01
-3.877927271153822630e-01
-3.785595669459684842e-01
-3.231606059294852562e-01
-3.323937660988990905e-01
-3.693264067765545944e-01
-3.647098266918476495e-01
-3.647098266918476495e-01
-3.647098266918476495e-01
-3.693264067765545944e-01
-3.785595669459684842e-01
-3.877927271153822630e-01
-3.785595669459684842e-01
-3.739429868612614838e-01
-4.293419478777447118e-01
-4.524248483012793809e-01
-4.939740690636417186e-01
-4.939740690636417186e-01
