-4.184523015667393486e-02
-3.540750244026255600e-02
-1.931318314923411925e-02
-1.931318314923411925e-02
1.609431929102843328e-02
1.287545543282274732e-02
0.000000000000000000e+00
-1.931318314923411925e-02
-9.656591574617057888e-03
-4.184523015667392098e-02
-6.115841330590804370e-02
-6.115841330590804370e-02
-6.759614102231942256e-02
-4.828295787308530679e-02
-6.115841330590805064e-02
-5.793954944770236121e-02
-4.828295787308530679e-02
-6.115841330590805064e-02
-1.931318314923412272e-02
-4.184523015667392792e-02
-2.575091086564550158e-02
-1.609431929102844022e-02
-1.931318314923412272e-02
3.218863858205682493e-03
-3.218863858205689432e-03
-9.656591574617061358e-03
-6.437727716411371925e-03
-2.896977472385118407e-02
-2.896977472385118407e-02
0.000000000000000000e+00
-1.609431929102844022e-02
4.506409401487961042e-02
5.793954944770236121e-02
-2.575091086564549464e-02
-3.540750244026254906e-02
1.287545543282275079e-02
-1.287545543282275079e-02
0.000000000000000000e+00
7.725273259693649086e-02
5.150182173129098928e-02
1.287545543282275079e-02
1.609431929102844022e-02
2.253204700743981215e-02
2.575091086564549811e-02
2.124450146415753360e-01
3.444184328280084917e-01
3.379807051115971128e-01
3.283241135369801000e-01
4.957050341636757840e-01
6.115841330590804370e-01
5.826143583352292321e-01
5.633011751859952065e-01
3.927013907010938332e-01
2.285393339326037832e-01
1.545054651938729817e-01
3.540750244026255600e-02
0.000000000000000000e+00
-1.287545543282275773e-02
-7.403386873873080143e-02
-7.081500488052511200e-02
-3.862636629846824543e-02
-2.253204700743979827e-02
-5.793954944770235427e-02
-6.115841330590804370e-02
-8.047159645514220805e-02
0.000000000000000000e+00
-2.575091086564548770e-02
-1.287545543282275773e-02
-4.248900292831506720e-01
-1.268232360133040526e+00
-1.155572125095841507e+00
-3.766070714100653305e-01
1.084757120215316561e+00
4.232805973540478384e+00
7.339009596708965688e+00
6.167343152322096067e+00
2.240329245311158068e+00
2.736034279474833797e-01
-3.894825268428881437e-01
-2.575091086564549880e-01
-7.081500488052511200e-02
-9.334705188796488251e-02
-1.931318314923411994e-01
-2.768222918056890136e-01
-2.800411556638947030e-01
-2.800411556638947030e-01
-2.896977472385117713e-01
-2.768222918056890136e-01
-3.927013907010938332e-01
-3.411995689698028023e-01
-2.993543388131288396e-01
-3.927013907010938332e-01
-3.637316159772426283e-01
-3.379807051115971128e-01
-3.379807051115971128e-01
-3.379807051115971128e-01
-3.186675219623629762e-01
-3.605127521190369388e-01
-3.862636629846824543e-01
-4.023579822757109015e-01
-4.538598040070018214e-01
-5.085804895964984862e-01
-4.763918510144416474e-01
-3.508561605444198706e-01
-4.023579822757109015e-01
-4.313277569995619953e-01
-3.701693436936540071e-01
-3.927013907010938332e-01
-3.862636629846824543e-01
-2.896977472385117713e-01
-2.703845640892776347e-01
-2.156638784997810254e-01
-4.184523015667390711e-02
3.218863858205689432e-03
1.834752399177241589e-01
1.609431929102844716e-02
8.369046031334786973e-02
7.403386873873080143e-02
8.047159645514218029e-02
2.896977472385120489e-02
2.896977472385120489e-02
0.000000000000000000e+00
9.656591574617062745e-02
1.255356904700217768e-01
-2.253204700743982603e-02
-6.437727716411378864e-03
0.000000000000000000e+00
-2.896977472385120489e-02
-3.218863858205686657e-01
-6.115841330590804370e-02
-5.793954944770235427e-02
-5.150182173129097540e-02
0.000000000000000000e+00
-4.184523015667396262e-02
-3.218863858205689432e-02
0.000000000000000000e+00
4.184523015667390711e-02
2.896977472385114938e-02
7.403386873873077367e-02
6.115841330590804370e-02
3.218863858205683881e-02
-4.184523015667396262e-02
2.253204700743977051e-02
4.828295787308528597e-02
-3.862636629846827319e-02
3.540750244026252824e-02
1.609431929102844716e-02
-3.218863858205689432e-02
1.931318314923408108e-02
1.062225073207876402e-01
1.062225073207876402e-01
7.403386873873077367e-02
6.115841330590804370e-02
6.115841330590804370e-02
5.472068558949666484e-02
5.150182173129097540e-02
9.334705188796491027e-02
2.478525170818378642e-01
3.605127521190369388e-01
3.444184328280084917e-01
3.379807051115971128e-01
5.633011751859952065e-01
5.568634474695838277e-01
5.117993534547041756e-01
5.793954944770236537e-01
5.085804895964984862e-01
3.379807051115971128e-01
2.575091086564549325e-01
2.381959255072207959e-01
5.793954944770235427e-02
-2.896977472385120489e-02
-1.609431929102844716e-02
-5.472068558949666484e-02
-5.472068558949666484e-02
-1.931318314923413659e-02
1.931318314923408108e-02
-5.150182173129097540e-02
-6.437727716411373313e-02
-4.184523015667390711e-02
-5.472068558949666484e-02
-8.690932417155355916e-02
-4.474220762905904425e-01
-1.100851439506344898e+00
-9.270327911632376683e-01
-9.978477960437631689e-02
1.612650792961049184e+00
3.692036845361922559e+00
7.326134141276143374e+00
6.437727716411374423e+00
2.211359470587306753e+00
6.695236825067828468e-01
-1.480677374774616029e-01
-6.180218607754919269e-01
-2.929166110967174608e-01
-1.866941037759298205e-01
-3.122297942459515974e-01
-3.894825268428881437e-01
-3.508561605444198706e-01
-3.991391184175052120e-01
-4.506409401487961319e-01
-3.991391184175052120e-01
-3.572938882608312494e-01
-4.345466208577676848e-01
-4.313277569995619953e-01
-3.476372966862141811e-01
-3.444184328280084917e-01
-3.798259352682710754e-01
-3.894825268428881437e-01
-4.506409401487961319e-01
-3.894825268428881437e-01
-3.540750244026255600e-01
-3.959202545592995226e-01
-4.957050341636757840e-01
-5.085804895964984862e-01
-4.892673064472644051e-01
-5.375502643203498021e-01
-4.957050341636757840e-01
-4.474220762905904425e-01
-5.504257197531725598e-01
-5.504257197531725598e-01
-4.989238980218814734e-01
-4.409843485741790636e-01
-2.961354749549231502e-01
-1.384111459028445346e-01
-8.369046031334786973e-02
0.000000000000000000e+00
6.437727716411351109e-03
-6.437727716411351109e-03
0.000000000000000000e+00
4.828295787308530679e-02
9.656591574617061358e-03
1.287545543282275079e-02
0.000000000000000000e+00
3.218863858205682493e-03
2.253204700743980521e-02
1.931318314923411578e-02
3.218863858205682493e-03
3.540750244026254906e-02
2.253204700743980521e-02
0.000000000000000000e+00
-4.828295787308530679e-02
0.000000000000000000e+00
6.437727716411371925e-03
0.000000000000000000e+00
0.000000000000000000e+00
4.184523015667392792e-02
9.656591574617061358e-03
3.540750244026254906e-02
3.218863858205682493e-03
3.218863858205682493e-03
1.931318314923411578e-02
6.115841330590805064e-02
4.828295787308530679e-02
3.540750244026254906e-02
4.184523015667392792e-02
9.656591574617061358e-03
5.793954944770236121e-02
1.416300097610502240e-01
1.512866013356672923e-01
1.030036434625819786e-01
9.978477960437628913e-02
2.768222918056890691e-01
3.411995689698028023e-01
2.736034279474833797e-01
3.476372966862141811e-01
5.826143583352293431e-01
6.244595884919031947e-01
5.697389029024065854e-01
6.180218607754918159e-01
5.665200390442008960e-01
4.442032124323848086e-01
1.899129676341355377e-01
1.545054651938729817e-01
9.656591574617061358e-03
1.931318314923411578e-02
-6.437727716411371925e-03
-8.369046031334785585e-02
-1.030036434625819786e-01
-5.793954944770236815e-02
-9.012818802975923471e-02
-1.062225073207876680e-01
-1.190979627536104257e-01
-8.047159645514218029e-02
-1.931318314923412272e-02
-2.896977472385118407e-02
-4.377654847159734297e-01
-9.946289321855572574e-01
-9.334705188796491582e-01
-2.156638784997810254e-01
1.223168266118161096e+00
3.096547031593870347e+00
6.943089342149666443e+00
6.984934572306340073e+00
2.851913378370238394e+00
1.149134397379430128e+00
1.384111459028445346e-01
-6.019275414844634797e-01
-5.311125366039383122e-01
-3.186675219623629762e-01
-3.283241135369800445e-01
-3.733882075518596966e-01
-4.570786678652075108e-01
-5.214559450293212439e-01
-5.085804895964985972e-01
-4.731729871562359580e-01
-5.182370811711155545e-01
-4.796107148726473368e-01
-3.669504798354483177e-01
-4.602975317234132002e-01
-5.343314004621440017e-01
-4.796107148726473368e-01
-4.989238980218814734e-01
-4.989238980218814734e-01
-4.699541232980302685e-01
-4.957050341636757840e-01
-5.375502643203496911e-01
-5.697389029024065854e-01
-6.019275414844634797e-01
-7.017123210888397411e-01
-7.371198235291023249e-01
-7.145877765216624988e-01
-7.274632319544852566e-01
-6.695236825067828468e-01
-6.019275414844634797e-01
-6.180218607754919269e-01
-6.373350439247259525e-01
-5.117993534547042866e-01
-4.055768461339165354e-01
-3.347618412533914234e-01
-1.738186483431070906e-01
0.000000000000000000e+00
5.150182173129100316e-02
5.150182173129100316e-02
9.012818802975924859e-02
1.030036434625819786e-01
1.287545543282274663e-01
1.705997844849014289e-01
1.223168266118161152e-01
1.641620567684900500e-01
1.899129676341355100e-01
1.577243290520786712e-01
1.190979627536104257e-01
1.416300097610502240e-01
1.158790988954047363e-01
8.369046031334786973e-02
8.047159645514218029e-02
1.480677374774616029e-01
1.223168266118161152e-01
9.012818802975924859e-02
6.759614102231942256e-02
4.828295787308531373e-02
3.862636629846824543e-02
9.334705188796493802e-02
8.047159645514218029e-02
3.862636629846824543e-02
1.931318314923412272e-02
7.081500488052511200e-02
9.012818802975924859e-02
1.126602350371990469e-01
1.480677374774616029e-01
6.437727716411373313e-02
3.540750244026255600e-02
7.403386873873080143e-02
2.253204700743981215e-02
6.437727716411373313e-02
1.126602350371990469e-01
1.705997844849014289e-01
2.736034279474833797e-01
3.991391184175051565e-01
3.991391184175051565e-01
4.602975317234132002e-01
6.019275414844633687e-01
5.954898137680519898e-01
5.278936727457326228e-01
5.021427618800871073e-01
4.570786678652075108e-01
2.736034279474833797e-01
1.287545543282274663e-01
0.000000000000000000e+00
-1.158790988954047224e-01
-1.351922820446388451e-01
-1.416300097610502240e-01
-1.963506953505468888e-01
-2.414147893654265131e-01
-2.221016062161923765e-01
-1.641620567684900223e-01
-1.255356904700217768e-01
-7.725273259693647698e-02
0.000000000000000000e+00
-5.472068558949667177e-02
-1.609431929102843328e-01
-6.952745933724283622e-01
-1.162009852812252886e+00
-6.759614102231942256e-01
3.798259352682710199e-01
1.883035357050326875e+00
4.677009185972863747e+00
7.078281624194305621e+00
4.677009185972863747e+00
1.683465797841574130e+00
3.379807051115971683e-01
-4.442032124323848086e-01
-4.667352594398246346e-01
-2.929166110967175163e-01
-2.993543388131288951e-01
-4.699541232980303240e-01
-4.892673064472644606e-01
-4.313277569995620508e-01
-4.474220762905904980e-01
-4.892673064472644606e-01
-4.892673064472644606e-01
-4.474220762905904980e-01
-5.053616257382929078e-01
-4.731729871562360135e-01
-4.538598040070018769e-01
-4.796107148726473923e-01
-4.892673064472644606e-01
-4.248900292831506720e-01
-4.474220762905904980e-01
-4.055768461339165354e-01
-4.731729871562360135e-01
-5.343314004621440017e-01
-5.922709499098464114e-01
-5.858332221934350326e-01
-5.568634474695838277e-01
-5.633011751859952065e-01
-5.697389029024065854e-01
-5.729577667606122748e-01
-5.793954944770236537e-01
-5.633011751859952065e-01
-4.892673064472644606e-01
-5.085804895964985972e-01
-4.828295787308530818e-01
-2.736034279474833797e-01
-1.384111459028445346e-01
-1.094413711789933574e-01
-7.081500488052511200e-02
4.828295787308529985e-02
-5.793954944770236815e-02
2.253204700743980868e-02
1.030036434625819786e-01
4.828295787308530679e-02
-1.609431929102843328e-02
9.978477960437628913e-02
5.150182173129099622e-02
4.184523015667393486e-02
4.828295787308530679e-02
1.287545543282274732e-02
3.218863858205686830e-03
3.540750244026255600e-02
6.759614102231942256e-02
6.437727716411373660e-03
0.000000000000000000e+00
0.000000000000000000e+00
-9.656591574617061358e-03
3.540750244026255600e-02
6.759614102231942256e-02
0.000000000000000000e+00
-1.609431929102843328e-02
2.575091086564549464e-02
-4.184523015667392792e-02
-2.253204700743980868e-02
5.150182173129099622e-02
4.828295787308530679e-02
3.218863858205686830e-03
2.575091086564549464e-02
5.793954944770236815e-02
2.896977472385118060e-02
6.437727716411373660e-03
5.150182173129099622e-02
5.150182173129099622e-02
2.575091086564549464e-02
1.255356904700217768e-01
2.639468363728663669e-01
3.572938882608312494e-01
3.766070714100653860e-01
4.152334377085336037e-01
5.504257197531724488e-01
5.568634474695838277e-01
6.148029969172862375e-01
5.954898137680521009e-01
4.989238980218815289e-01
3.186675219623630317e-01
1.545054651938729540e-01
4.184523015667393486e-02
3.218863858205686830e-03
-7.403386873873080143e-02
-1.384111459028445346e-01
-1.802563760595184694e-01
-2.156638784997810254e-01
-1.899129676341355377e-01
-1.770375122013127800e-01
-1.287545543282274663e-01
-1.030036434625819786e-01
-1.030036434625819786e-01
0.000000000000000000e+00
-9.656591574617059970e-02
-7.757461898275704870e-01
-1.290764407140480463e+00
-1.033255298484025531e+00
-8.690932417155353140e-02
1.792907169020567570e+00
4.631945091957983429e+00
7.155534356791241279e+00
5.970992456971548457e+00
1.860503310042886937e+00
2.768222918056890691e-01
-3.894825268428880882e-01
-2.092261507833696188e-01
-2.961354749549232057e-01
-2.285393339326037554e-01
-2.575091086564549325e-01
-3.572938882608311939e-01
-4.345466208577677403e-01
-4.184523015667392931e-01
-4.763918510144415919e-01
-4.667352594398245236e-01
-4.313277569995620508e-01
-4.570786678652074553e-01
-4.635163955816188341e-01
-4.570786678652074553e-01
-4.313277569995620508e-01
-4.506409401487960764e-01
-4.989238980218814179e-01
-4.602975317234131447e-01
-4.667352594398245236e-01
-4.635163955816188341e-01
-4.216711654249449825e-01
-4.731729871562359024e-01
-5.568634474695838277e-01
-5.472068558949667594e-01
-5.182370811711155545e-01
-5.600823113277895171e-01
-5.150182173129098651e-01
-4.860484425890586602e-01
-5.021427618800871073e-01
-4.635163955816188341e-01
-3.766070714100653305e-01
-2.929166110967175163e-01
-2.285393339326037554e-01
-9.334705188796491027e-02
-9.012818802975922083e-02
0.000000000000000000e+00
3.862636629846823155e-02
5.150182173129098234e-02
2.253204700743979827e-02
5.793954944770236121e-02
6.759614102231942256e-02
-3.540750244026255600e-02
4.506409401487961042e-02
6.437727716411373313e-02
5.472068558949667177e-02
5.793954944770236121e-02
9.978477960437628913e-02
8.047159645514216642e-02
6.759614102231942256e-02
6.115841330590804370e-02
5.793954944770236121e-02
1.609431929102843328e-02
7.403386873873080143e-02
9.012818802975922083e-02
9.656591574617054419e-03
1.609431929102843328e-02
4.828295787308529985e-02
7.403386873873080143e-02
6.115841330590804370e-02
9.334705188796491027e-02
6.437727716411373313e-02
5.793954944770236121e-02
4.828295787308529985e-02
6.759614102231942256e-02
4.828295787308529985e-02
9.334705188796491027e-02
1.158790988954047224e-01
6.759614102231942256e-02
4.184523015667392098e-02
7.081500488052511200e-02
2.253204700743979827e-02
6.115841330590804370e-02
2.188827423579867149e-01
3.315429773951857340e-01
3.894825268428880882e-01
4.184523015667392931e-01
5.021427618800871073e-01
6.308973162083145736e-01
5.987086776262577903e-01
5.922709499098464114e-01
5.439879920367610699e-01
4.602975317234132002e-01
2.768222918056890691e-01
1.255356904700217768e-01
0.000000000000000000e+00
-4.506409401487962429e-02
-1.287545543282274663e-01
-1.545054651938729817e-01
-1.673809206266957395e-01
-1.963506953505468888e-01
-2.414147893654265409e-01
-1.416300097610501962e-01
-1.287545543282275773e-02
-5.793954944770235427e-02
-1.931318314923413659e-02
3.218863858205689432e-03
-2.896977472385118269e-01
-8.980630164393866854e-01
-1.252138040842012412e+00
-7.499952789619250826e-01
4.570786678652075663e-01
2.381959255072207959e+00
7.058968441045071707e+00
7.252100272537412629e+00
3.865855493705030010e+00
1.107289167222756276e+00
-2.156638784997810254e-01
-3.637316159772425728e-01
-1.094413711789933297e-01
-1.255356904700217768e-01
-3.154486581041573423e-01
-3.154486581041573423e-01
-1.190979627536103980e-01
-4.055768461339165354e-01
-3.669504798354482622e-01
-4.216711654249449825e-01
-4.409843485741791191e-01
-4.152334377085336037e-01
-4.570786678652075663e-01
-4.506409401487961874e-01
-4.087957099921222248e-01
-4.023579822757108460e-01
-4.635163955816189452e-01
-4.216711654249449825e-01
-3.508561605444199261e-01
-4.892673064472644606e-01
-3.605127521190368833e-01
-4.216711654249449825e-01
-4.796107148726473923e-01
-5.568634474695838277e-01
-5.117993534547041756e-01
-4.828295787308530818e-01
-5.214559450293212439e-01
-5.343314004621440017e-01
-5.117993534547041756e-01
-5.053616257382927968e-01
-4.796107148726473923e-01
-3.669504798354482622e-01
-3.669504798354482622e-01
-2.446336532236322303e-01
-1.158790988954047085e-01
-5.150182173129097540e-02
0.000000000000000000e+00
2.253204700743979827e-02
1.931318314923410884e-02
6.437727716411351109e-03
7.081500488052509812e-02
4.506409401487961042e-02
-1.287545543282272997e-02
0.000000000000000000e+00
-1.609431929102841941e-02
4.184523015667393486e-02
1.609431929102844716e-02
6.115841330590805758e-02
6.437727716411378864e-03
-1.931318314923410884e-02
3.218863858205686657e-02
3.218863858205689432e-03
1.931318314923413659e-02
4.828295787308529985e-02
6.437727716411378864e-03
-3.218863858205686657e-02
-1.609431929102841941e-02
3.540750244026255600e-02
0.000000000000000000e+00
0.000000000000000000e+00
6.759614102231942256e-02
1.931318314923413659e-02
0.000000000000000000e+00
1.287545543282275773e-02
-6.437727716411378864e-03
-1.609431929102841941e-02
0.000000000000000000e+00
3.540750244026255600e-02
3.540750244026255600e-02
5.150182173129098928e-02
3.540750244026255600e-02
3.218863858205686657e-02
9.656591574617068297e-03
1.287545543282275773e-02
6.759614102231942256e-02
2.671657002310720008e-01
4.055768461339165354e-01
3.637316159772426283e-01
3.605127521190369388e-01
4.957050341636757285e-01
5.633011751859952065e-01
5.117993534547041756e-01
5.053616257382927968e-01
3.701693436936539516e-01
2.768222918056890691e-01
1.866941037759298483e-01
6.759614102231942256e-02
-8.690932417155353140e-02
-1.931318314923412272e-01
-1.384111459028445068e-01
-1.512866013356672645e-01
-1.705997844849014011e-01
-1.705997844849014011e-01
-1.190979627536103980e-01
-7.081500488052505649e-02
-9.656591574617068297e-03
-1.931318314923413659e-02
-6.437727716411378864e-03
-1.931318314923412549e-01
-7.596518705365420399e-01
-1.322953045722537357e+00
-9.463459743124718049e-01
2.221016062161923488e-01
1.899129676341355211e+00
5.803611536344853050e+00
7.293945502694086258e+00
4.686665777547480261e+00
1.528960332647701259e+00
3.218863858205633921e-03
-3.701693436936540071e-01
-1.834752399177241866e-01
-1.158790988954047640e-01
-1.931318314923412549e-01
-2.800411556638948141e-01
-3.605127521190369388e-01
-3.701693436936540071e-01
-3.862636629846824543e-01
-4.120145738503279698e-01
-3.766070714100653860e-01
-3.669504798354483177e-01
-4.377654847159734852e-01
-3.927013907010938332e-01
-3.766070714100653860e-01
-4.281088931413564169e-01
-3.476372966862141811e-01
-3.637316159772426283e-01
-4.474220762905905535e-01
-4.087957099921222803e-01
-3.766070714100653860e-01
-4.184523015667393486e-01
-3.927013907010938332e-01
-4.570786678652075108e-01
-4.796107148726473368e-01
-5.182370811711156655e-01
-5.150182173129098651e-01
-4.731729871562359580e-01
-5.214559450293212439e-01
-4.442032124323848641e-01
-3.701693436936540071e-01
-3.379807051115971128e-01
-2.639468363728663669e-01
-1.255356904700218323e-01
-3.218863858205689432e-02
0.000000000000000000e+00
0.000000000000000000e+00
0.000000000000000000e+00
0.000000000000000000e+00
5.150182173129098928e-02
9.012818802975923471e-02
2.896977472385118407e-02
9.656591574617061358e-03
1.287545543282274732e-02
3.218863858205686830e-03
0.000000000000000000e+00
3.862636629846823849e-02
0.000000000000000000e+00
3.218863858205685963e-03
4.828295787308529985e-02
-2.896977472385118407e-02
-4.506409401487961736e-02
-1.287545543282274732e-02
-9.656591574617061358e-03
-3.218863858205686657e-02
3.218863858205685963e-03
2.253204700743980521e-02
1.609431929102843328e-02
0.000000000000000000e+00
5.150182173129098928e-02
3.218863858205686657e-02
2.896977472385117713e-02
4.828295787308529985e-02
4.506409401487961736e-02
0.000000000000000000e+00
5.150182173129098928e-02
5.150182173129098928e-02
6.115841330590805064e-02
1.094413711789933574e-01
6.437727716411374701e-02
3.540750244026255600e-02
5.472068558949667177e-02
8.690932417155354528e-02
3.218863858205686657e-02
9.334705188796492414e-02
2.542902447982492986e-01
4.409843485741791191e-01
4.313277569995620508e-01
4.409843485741791191e-01
5.182370811711155545e-01
5.665200390442008960e-01
5.665200390442008960e-01
6.019275414844634797e-01
4.699541232980303240e-01
3.186675219623630317e-01
2.285393339326037554e-01
6.115841330590805064e-02
-2.253204700743980868e-02
-8.690932417155354528e-02
-1.770375122013127800e-01
-1.705997844849014011e-01
-1.545054651938729817e-01
-1.738186483431070906e-01
-2.349770616490151620e-01
-1.899129676341355100e-01
-6.759614102231942256e-02
-6.437727716411378864e-03
0.000000000000000000e+00
-9.656591574617059970e-02
-8.047159645514216919e-01
-1.268232360133040748e+00
-8.787498332901525488e-01
2.027884230669582677e-01
1.751061938863893497e+00
5.085804895964985306e+00
7.152315492933036367e+00
5.504257197531725154e+00
1.937756042639823484e+00
2.188827423579867149e-01
-4.699541232980302130e-01
-4.313277569995620508e-01
-2.092261507833696188e-01
-3.025732026713345846e-01
-3.605127521190368833e-01
-3.766070714100653305e-01
-4.602975317234131447e-01
-4.570786678652074553e-01
-4.538598040070017658e-01
-4.957050341636757285e-01
-5.182370811711155545e-01
-4.699541232980302130e-01
-5.150182173129098651e-01
-5.182370811711155545e-01
-4.731729871562359024e-01
-5.536445836113781382e-01
-5.182370811711155545e-01
-4.152334377085336037e-01
-4.570786678652074553e-01
-5.633011751859952065e-01
-5.214559450293212439e-01
-5.182370811711155545e-01
-6.051464053426690581e-01
-6.791802740813999151e-01
-6.727425463649885362e-01
-6.405539077829316419e-01
-6.276784523501088842e-01
-6.083652692008747476e-01
-6.180218607754918159e-01
-6.180218607754918159e-01
-5.633011751859952065e-01
-4.087957099921222248e-01
-3.025732026713345846e-01
-1.770375122013127800e-01
-9.012818802975922083e-02
0.000000000000000000e+00
0.000000000000000000e+00
6.437727716411373313e-02
2.253204700743980521e-02
-1.609431929102843328e-02
4.828295787308529985e-02
3.218863858205685963e-03
1.738186483431070906e-01
9.656591574617057888e-03
3.218863858205686657e-02
5.150182173129098928e-02
3.540750244026255600e-02
6.437727716411374701e-02
-3.218863858205685963e-03
3.218863858205686657e-02
9.656591574617061358e-02
9.656591574617061358e-02
-1.287545543282274732e-02
-3.218863858205685963e-03
-1.609431929102843328e-02
-1.931318314923412272e-02
9.656591574617057888e-03
2.253204700743980868e-02
6.759614102231942256e-02
7.725273259693649086e-02
5.472068558949667871e-02
3.218863858205686657e-02
6.115841330590805758e-02
9.334705188796492414e-02
5.150182173129098928e-02
6.115841330590805758e-02
6.759614102231942256e-02
3.540750244026255600e-02
4.828295787308529985e-02
1.480677374774616029e-01
1.545054651938729817e-01
4.184523015667393486e-02
2.221016062161924043e-01
3.830447991264767649e-01
2.896977472385118269e-01
3.122297942459516529e-01
5.182370811711155545e-01
5.568634474695838277e-01
5.633011751859952065e-01
5.826143583352293431e-01
4.989238980218814179e-01
3.766070714100653860e-01
2.575091086564549325e-01
1.512866013356672923e-01
-6.437727716411373313e-02
-8.690932417155354528e-02
-4.184523015667392792e-02
-1.512866013356672923e-01
-1.738186483431070906e-01
-8.690932417155354528e-02
-1.416300097610502240e-01
-1.641620567684900223e-01
-1.094413711789933574e-01
-6.437727716411373313e-02
-6.437727716411373313e-02
-1.673809206266957395e-01
-6.051464053426691692e-01
-1.052568481633259445e+00
-7.725273259693649086e-01
4.120145738503279143e-01
1.818658079886213086e+00
4.248900292831506498e+00
7.068625032619688220e+00
4.966706933211375130e+00
1.931318314923412105e+00
5.987086776262576793e-01
-1.545054651938729817e-01
-6.019275414844634797e-01
-3.959202545592994671e-01
-3.444184328280084917e-01
-4.506409401487961319e-01
-3.991391184175051565e-01
-4.313277569995620508e-01
-5.633011751859952065e-01
-5.858332221934350326e-01
-5.182370811711156655e-01
-4.989238980218814734e-01
-5.021427618800872184e-01
-4.957050341636757840e-01
-5.472068558949667594e-01
-5.761766306188179643e-01
-4.989238980218814734e-01
-4.989238980218814734e-01
-5.278936727457327338e-01
-5.053616257382929078e-01
-5.826143583352293431e-01
-6.856180017978112939e-01
-6.823991379396056045e-01
-7.049311849470454305e-01
-7.725273259693649086e-01
-8.562177862827127228e-01
-7.467764151037193932e-01
-7.145877765216624988e-01
-7.210255042380738777e-01
-7.306820958126909460e-01
-6.856180017978112939e-01
-6.469916354993431318e-01
-5.600823113277895171e-01
-4.635163955816188897e-01
-2.575091086564549325e-01
-4.506409401487961042e-02
5.472068558949667871e-02
-8.047159645514216642e-02
0.000000000000000000e+00
7.725273259693649086e-02
6.759614102231942256e-02
8.369046031334786973e-02
1.190979627536104118e-01
1.416300097610502240e-01
5.150182173129098928e-02
3.540750244026256988e-02
4.828295787308529985e-02
5.793954944770236815e-02
3.862636629846825931e-02
1.609431929102843328e-02
0.000000000000000000e+00
4.828295787308529985e-02
3.218863858205688044e-02
0.000000000000000000e+00
0.000000000000000000e+00
6.437727716411378864e-03
-5.472068558949667177e-02
-7.725273259693649086e-02
3.540750244026256988e-02
1.931318314923412272e-02
-4.506409401487961042e-02
-4.828295787308529985e-02
-4.828295787308529985e-02
-7.403386873873080143e-02
-9.656591574617054419e-03
6.759614102231943644e-02
1.609431929102843328e-02
6.437727716411378864e-03
1.609431929102843328e-02
-1.931318314923412272e-02
5.793954944770236815e-02
1.577243290520786712e-01
2.510713809400435537e-01
1.802563760595184417e-01
2.542902447982492431e-01
4.924861703054700945e-01
5.633011751859952065e-01
5.568634474695838277e-01
5.633011751859952065e-01
3.766070714100653305e-01
2.124450146415753360e-01
1.190979627536104118e-01
3.218863858205688044e-02
-9.334705188796491027e-02
-1.673809206266957117e-01
-1.673809206266957117e-01
-3.154486581041572868e-01
-2.575091086564549325e-01
-2.510713809400435537e-01
-2.575091086564549325e-01
-1.673809206266957117e-01
-8.047159645514216642e-02
-1.609431929102843606e-01
-1.223168266118161152e-01
-9.334705188796493802e-02
-5.504257197531724488e-01
-1.030036434625819730e+00
-7.435575512455137037e-01
3.927013907010937777e-01
1.767156258154922055e+00
4.197398471100215467e+00
7.136221173642007365e+00
5.108336942972425021e+00
2.072948324684462218e+00
6.502104993575487102e-01
-2.800411556638947586e-01
-6.341161800665202630e-01
-3.798259352682710199e-01
-2.961354749549232057e-01
-3.927013907010937777e-01
-4.377654847159734297e-01
-4.892673064472643496e-01
-5.150182173129098651e-01
-5.375502643203496911e-01
-5.311125366039383122e-01
-5.536445836113781382e-01
-5.117993534547041756e-01
-4.345466208577677403e-01
-4.989238980218814179e-01
-5.536445836113781382e-01
-5.214559450293212439e-01
-5.150182173129098651e-01
-4.989238980218814179e-01
-5.182370811711155545e-01
-5.343314004621440017e-01
-5.890520860516407220e-01
-7.049311849470454305e-01
-6.856180017978112939e-01
-6.888368656560169834e-01
-6.856180017978112939e-01
-6.663048186485771573e-01
-7.403386873873080143e-01
-7.403386873873080143e-01
-6.502104993575487102e-01
-6.405539077829316419e-01
-6.373350439247259525e-01
-4.957050341636757285e-01
-4.087957099921222248e-01
-2.736034279474833797e-01
-7.725273259693649086e-02
0.000000000000000000e+00
0.000000000000000000e+00
0.000000000000000000e+00
3.218863858205685963e-03
3.540750244026255600e-02
5.150182173129098234e-02
9.978477960437628913e-02
4.184523015667393486e-02
9.656591574617061358e-03
1.931318314923411578e-02
-2.896977472385118060e-02
-1.287545543282274385e-02
2.253204700743980521e-02
3.218863858205689432e-03
-6.437727716411371925e-03
5.150182173129099622e-02
3.862636629846823849e-02
3.218863858205689432e-03
-6.437727716411371925e-03
0.000000000000000000e+00
0.000000000000000000e+00
-1.609431929102843328e-02
1.931318314923411578e-02
2.253204700743980521e-02
3.218863858205689432e-03
3.218863858205689432e-03
3.218863858205689432e-03
-6.759614102231942256e-02
0.000000000000000000e+00
9.012818802975924859e-02
3.218863858205689432e-03
6.437727716411371925e-03
4.506409401487961736e-02
5.150182173129099622e-02
8.047159645514218029e-02
2.703845640892776903e-01
7.081500488052511200e-02
3.862636629846823849e-02
4.828295787308530679e-02
1.673809206266957117e-01
2.929166110967174608e-01
3.959202545592994671e-01
4.216711654249449825e-01
4.828295787308529707e-01
6.244595884919031947e-01
6.437727716411373313e-01
5.375502643203496911e-01
4.828295787308529707e-01
3.991391184175051565e-01
2.317581977908094448e-01
9.656591574617062745e-02
6.437727716411371925e-03
-9.978477960437628913e-02
-1.705997844849014011e-01
-1.319734181864331557e-01
-1.062225073207876680e-01
-2.221016062161923765e-01
-2.317581977908094448e-01
-8.369046031334784197e-02
-9.978477960437628913e-02
-1.062225073207876680e-01
-4.828295787308529985e-02
-2.896977472385116326e-02
-3.090109303877459634e-01
-1.020379843051202551e+00
-1.171666444386869843e+00
-2.961354749549232057e-01
9.785346128945288102e-01
3.012856571280523088e+00
7.107251398918156049e+00
7.107251398918156049e+00
2.890539744668707112e+00
7.403386873873080143e-01
-2.188827423579867149e-01
-3.830447991264767649e-01
-2.510713809400436092e-01
-2.542902447982492431e-01
-2.575091086564549325e-01
-3.572938882608312494e-01
-4.377654847159734297e-01
-4.377654847159734297e-01
-4.506409401487961874e-01
-4.635163955816189452e-01
-4.667352594398246346e-01
-4.087957099921222248e-01
-4.377654847159734297e-01
-4.409843485741791191e-01
-3.862636629846824543e-01
-3.991391184175051565e-01
-3.862636629846824543e-01
-4.184523015667392931e-01
-4.570786678652075663e-01
-4.377654847159734297e-01
-4.248900292831506720e-01
-4.667352594398246346e-01
-4.892673064472644606e-01
-4.699541232980303240e-01
-5.633011751859952065e-01
-5.729577667606122748e-01
-5.278936727457326228e-01
-4.924861703054701501e-01
-3.057920665295402740e-01
-2.703845640892776903e-01
-3.444184328280084917e-01
-3.540750244026255600e-01
-2.253204700743980937e-01
-3.025732026713345846e-01
-1.416300097610502240e-01
0.000000000000000000e+00
0.000000000000000000e+00
3.218863858205685963e-03
6.437727716411373660e-03
9.978477960437628913e-02
1.255356904700218046e-01
8.369046031334786973e-02
3.862636629846823849e-02
1.158790988954047363e-01
5.793954944770236121e-02
0.000000000000000000e+00
1.931318314923412272e-02
3.540750244026255600e-02
-1.609431929102843328e-02
7.725273259693649086e-02
1.158790988954047363e-01
5.150182173129098234e-02
5.793954944770236121e-02
2.575091086564549464e-02
-9.656591574617061358e-03
3.218863858205686657e-02
1.030036434625819786e-01
8.369046031334786973e-02
1.609431929102843328e-02
7.081500488052511200e-02
5.793954944770236121e-02
-9.656591574617061358e-03
1.931318314923412272e-02
5.150182173129098234e-02
8.369046031334786973e-02
7.403386873873080143e-02
6.759614102231942256e-02
6.759614102231942256e-02
7.403386873873080143e-02
8.047159645514218029e-02
-6.437727716411375395e-03
4.184523015667392792e-02
7.081500488052511200e-02
1.030036434625819786e-01
5.472068558949667177e-02
2.575091086564549464e-02
6.437727716411373313e-02
1.931318314923412272e-01
3.379807051115971128e-01
3.894825268428881437e-01
3.379807051115971128e-01
4.538598040070018769e-01
6.019275414844634797e-01
5.536445836113781382e-01
4.989238980218814179e-01
4.892673064472644606e-01
3.830447991264767649e-01
1.899129676341355377e-01
1.384111459028445346e-01
0.000000000000000000e+00
-1.673809206266957117e-01
-1.416300097610502240e-01
-1.416300097610502240e-01
-2.446336532236322026e-01
-2.575091086564549880e-01
-1.448488736192559134e-01
-9.012818802975922083e-02
-1.480677374774615751e-01
-9.334705188796491027e-02
-2.575091086564548770e-02
-4.828295787308531373e-02
-3.991391184175051565e-01
-1.091194847931727718e+00
-1.187760763677898401e+00
-4.506409401487961874e-01
1.219949402259955296e+00
3.344399548675708544e+00
7.219911633955355512e+00
7.219911633955355512e+00
2.446336532236322192e+00
5.246748088875269334e-01
-3.025732026713345846e-01
-3.927013907010937777e-01
-1.416300097610501962e-01
-1.384111459028445623e-01
-2.768222918056890691e-01
-3.830447991264768204e-01
-3.476372966862142366e-01
-3.540750244026256155e-01
-3.927013907010937777e-01
-4.055768461339165354e-01
-4.635163955816189452e-01
-4.313277569995620508e-01
-3.927013907010937777e-01
-3.572938882608313049e-01
-4.281088931413563614e-01
-5.053616257382929078e-01
-4.602975317234132557e-01
-4.184523015667392931e-01
-3.927013907010937777e-01
-4.023579822757108460e-01
-4.345466208577677403e-01
-5.633011751859952065e-01
-5.504257197531724488e-01
-4.957050341636758395e-01
-5.375502643203496911e-01
-5.826143583352293431e-01
-6.083652692008748586e-01
-5.826143583352293431e-01
-5.600823113277895171e-01
-4.506409401487961874e-01
-4.409843485741791191e-01
-4.442032124323848086e-01
-3.733882075518597521e-01
-2.671657002310720008e-01
-1.223168266118161152e-01
-3.862636629846824543e-02
0.000000000000000000e+00
-3.218863858205689432e-03
3.540750244026255600e-02
4.828295787308531373e-02
9.656591574617068297e-03
-2.575091086564548770e-02
3.540750244026255600e-02
3.540750244026255600e-02
-2.575091086564548770e-02
3.862636629846824543e-02
2.253204700743981215e-02
1.931318314923412272e-02
1.287545543282275773e-02
3.218863858205686657e-02
0.000000000000000000e+00
-6.437727716411378864e-03
3.218863858205686657e-02
0.000000000000000000e+00
-3.218863858205689432e-03
3.218863858205686657e-02
-1.931318314923410884e-02
-5.472068558949666484e-02
1.931318314923412272e-02
5.793954944770236815e-02
-9.656591574617068297e-03
-1.287545543282275773e-02
3.862636629846824543e-02
3.862636629846824543e-02
5.150182173129098928e-02
-3.218863858205689432e-03
-9.656591574617068297e-03
-3.218863858205689432e-03
8.047159645514216642e-02
6.759614102231942256e-02
4.506409401487961042e-02
6.437727716411378864e-03
-2.253204700743979827e-02
5.150182173129098928e-02
5.150182173129098928e-02
4.828295787308529985e-02
-3.218863858205686657e-02
4.184523015667393486e-02
3.379807051115971128e-01
3.508561605444198706e-01
3.476372966862141811e-01
4.087957099921222248e-01
5.407691281785553805e-01
6.148029969172862375e-01
5.793954944770236537e-01
5.278936727457326228e-01
4.281088931413563614e-01
3.540750244026255600e-01
1.963506953505468888e-01
3.218863858205686657e-02
-5.472068558949666484e-02
-8.690932417155353140e-02
-1.416300097610501962e-01
-1.255356904700217768e-01
-1.609431929102843606e-01
-1.995695592087525783e-01
-1.705997844849014011e-01
-1.158790988954047640e-01
-9.978477960437626137e-02
-7.403386873873074592e-02
-5.472068558949666484e-02
-1.770375122013127522e-01
-8.819686971483581273e-01
-1.261794632416629369e+00
-8.111536922678329598e-01
1.899129676341355655e-01
2.246766973027569669e+00
5.684513573591242874e+00
7.290726638835880458e+00
4.313277569995620730e+00
1.062225073207876846e+00
-1.319734181864331557e-01
-4.506409401487961874e-01
-1.416300097610501685e-01
-6.115841330590804370e-02
-2.607279725146606220e-01
-2.929166110967175163e-01
-2.478525170818378642e-01
-3.283241135369799890e-01
-3.637316159772425728e-01
-3.476372966862141256e-01
-3.476372966862141256e-01
-3.766070714100653305e-01
-3.411995689698027467e-01
-3.283241135369799890e-01
-3.347618412533913679e-01
-3.701693436936539516e-01
-3.605127521190368833e-01
-3.186675219623629207e-01
-2.896977472385118269e-01
-3.090109303877459634e-01
-3.379807051115970573e-01
-3.444184328280084362e-01
-3.444184328280084362e-01
-4.313277569995620508e-01
-4.828295787308529707e-01
-4.152334377085336037e-01
-4.120145738503279143e-01
-4.763918510144415919e-01
-4.313277569995620508e-01
-3.508561605444198150e-01
-3.766070714100653305e-01
-2.317581977908094171e-01
-1.738186483431070628e-01
-7.081500488052505649e-02
0.000000000000000000e+00
0.000000000000000000e+00
0.000000000000000000e+00
0.000000000000000000e+00
1.158790988954047363e-01
9.656591574617059970e-02
4.828295787308529985e-02
8.047159645514216642e-02
3.540750244026255600e-02
2.896977472385117713e-02
7.403386873873080143e-02
6.759614102231942256e-02
3.540750244026255600e-02
4.184523015667392792e-02
9.334705188796491027e-02
5.793954944770236121e-02
5.150182173129098928e-02
6.759614102231942256e-02
3.218863858205686657e-02
2.253204700743980521e-02
4.184523015667392792e-02
6.437727716411371925e-03
4.506409401487961042e-02
4.828295787308529985e-02
1.931318314923411925e-02
5.793954944770236121e-02
5.150182173129098928e-02
-6.437727716411378864e-03
-9.656591574617061358e-03
6.115841330590804370e-02
7.725273259693649086e-02
-3.218863858205687350e-02
-4.506409401487961736e-02
2.253204700743980521e-02
9.656591574617061358e-03
-3.218863858205689432e-03
-1.609431929102844022e-02
-6.759614102231942256e-02
-4.828295787308530679e-02
0.000000000000000000e+00
4.184523015667392792e-02
-6.437727716411378864e-03
-5.472068558949668565e-02
0.000000000000000000e+00
-2.896977472385118407e-02
6.437727716411371925e-03
1.384111459028445346e-01
2.060072869251639571e-01
2.285393339326037832e-01
3.025732026713345846e-01
4.409843485741791191e-01
4.602975317234132002e-01
4.924861703054700945e-01
4.602975317234132002e-01
4.087957099921222248e-01
3.315429773951857340e-01
2.349770616490151343e-01
8.690932417155355916e-02
0.000000000000000000e+00
-1.190979627536104535e-01
-1.223168266118160874e-01
-1.287545543282274663e-01
-8.690932417155355916e-02
-1.673809206266957395e-01
-1.802563760595184972e-01
-1.480677374774616029e-01
-9.334705188796493802e-02
-6.115841330590804370e-02
-2.253204700743982603e-02
-1.062225073207876402e-01
-5.536445836113781382e-01
-1.152353261237635706e+00
-9.817534767527343886e-01
5.793954944770235427e-02
1.451707600050764935e+00
3.759632986384242592e+00
7.258538000253823341e+00
5.208121722576801282e+00
1.998914455945731472e+00
4.957050341636757840e-01
-2.929166110967175163e-01
-5.150182173129098651e-01
-2.607279725146606220e-01
-2.607279725146606220e-01
-3.090109303877459634e-01
-3.090109303877459634e-01
-3.122297942459516529e-01
-3.701693436936539516e-01
-4.055768461339165354e-01
-4.120145738503279143e-01
-4.087957099921222248e-01
-3.927013907010937777e-01
-3.411995689698028578e-01
-3.733882075518596411e-01
-3.669504798354482622e-01
-3.315429773951857895e-01
-3.927013907010937777e-01
-4.055768461339165354e-01
-3.186675219623630317e-01
-4.120145738503279143e-01
-4.281088931413563614e-01
-4.377654847159734297e-01
-4.957050341636757285e-01
-5.311125366039383122e-01
-5.150182173129098651e-01
-4.860484425890586602e-01
-5.150182173129098651e-01
-5.214559450293212439e-01
-5.182370811711155545e-01
-4.313277569995620508e-01
-3.411995689698028578e-01
-2.510713809400435537e-01
-2.381959255072208514e-01
-1.190979627536103980e-01
0.000000000000000000e+00
3.218863858205682493e-03
-3.218863858205682493e-03
0.000000000000000000e+00
9.656591574617061358e-03
-9.656591574617061358e-03
9.656591574617061358e-03
6.115841330590805064e-02
0.000000000000000000e+00
7.403386873873080143e-02
1.545054651938729540e-01
2.896977472385119101e-02
0.000000000000000000e+00
1.609431929102843328e-02
4.828295787308529985e-02
5.150182173129098928e-02
9.334705188796492414e-02
7.725273259693647698e-02
4.828295787308529985e-02
6.437727716411374701e-02
1.287545543282275773e-02
-7.403386873873078755e-02
-3.862636629846823849e-02
1.030036434625819924e-01
-9.656591574617054419e-03
5.793954944770236815e-02
1.158790988954047224e-01
6.437727716411374701e-02
-3.218863858205689432e-03
1.030036434625819924e-01
1.287545543282274663e-01
9.656591574617061358e-02
8.047159645514216642e-02
3.218863858205689432e-03
4.828295787308529985e-02
1.030036434625819924e-01
1.062225073207876819e-01
8.047159645514216642e-02
4.184523015667393486e-02
1.931318314923412549e-01
3.379807051115971128e-01
3.991391184175052120e-01
4.023579822757109015e-01
4.796107148726473368e-01
5.697389029024065854e-01
6.308973162083145736e-01
6.341161800665202630e-01
6.180218607754918159e-01
5.729577667606122748e-01
4.152334377085336037e-01
2.285393339326037832e-01
2.575091086564550158e-02
2.575091086564550158e-02
-5.472068558949667177e-02
-3.540750244026254906e-02
-6.759614102231942256e-02
-1.641620567684900223e-01
-2.253204700743980937e-01
-1.802563760595184417e-01
-8.047159645514218029e-02
-8.690932417155354528e-02
-1.287545543282274385e-02
0.000000000000000000e+00
-3.379807051115971128e-01
-9.688780213199117419e-01
-1.068662800924288003e+00
-3.411995689698028023e-01
1.110508031080962077e+00
2.919509519392558428e+00
6.527855904441133283e+00
6.972059116873517759e+00
2.929166110967175385e+00
1.068662800924288003e+00
-6.437727716411371925e-03
-6.308973162083146846e-01
-4.828295787308530262e-01
-2.768222918056890691e-01
-2.961354749549232057e-01
-3.798259352682710754e-01
-3.894825268428880882e-01
-3.862636629846824543e-01
-3.669504798354483177e-01
-4.635163955816188897e-01
-4.602975317234132002e-01
-3.991391184175051565e-01
-4.184523015667392931e-01
-4.248900292831506720e-01
-4.216711654249449825e-01
-3.894825268428880882e-01
-3.991391184175051565e-01
-4.152334377085336037e-01
-4.538598040070018769e-01
-4.570786678652075663e-01
-4.763918510144416474e-01
-5.214559450293212439e-01
-5.793954944770236537e-01
-5.954898137680521009e-01
-5.858332221934350326e-01
-6.244595884919033058e-01
-6.984934572306340517e-01
-6.405539077829316419e-01
-6.244595884919033058e-01
-5.600823113277895171e-01
-5.182370811711155545e-01
-3.894825268428880882e-01
-2.993543388131288951e-01
-1.641620567684900223e-01
0.000000000000000000e+00
0.000000000000000000e+00
0.000000000000000000e+00
2.253204700743979827e-02
8.369046031334784197e-02
9.334705188796493802e-02
9.334705188796493802e-02
1.319734181864331557e-01
6.759614102231942256e-02
6.437727716411373313e-02
1.223168266118160874e-01
-2.575091086564548770e-02
-9.656591574617068297e-03
6.759614102231942256e-02
8.690932417155355916e-02
9.334705188796493802e-02
6.437727716411373313e-02
6.437727716411378864e-03
-3.862636629846824543e-02
-9.656591574617068297e-03
2.575091086564551546e-02
6.437727716411378864e-03
1.287545543282275773e-02
-6.437727716411378864e-03
-5.793954944770235427e-02
-6.437727716411378864e-03
3.862636629846821767e-02
4.184523015667390711e-02
2.253204700743982603e-02
7.725273259693649086e-02
4.506409401487959654e-02
0.000000000000000000e+00
3.218863858205689432e-02
4.184523015667390711e-02
6.437727716411378864e-03
2.896977472385120489e-02
8.690932417155355916e-02
5.150182173129097540e-02
5.150182173129097540e-02
5.472068558949666484e-02
2.253204700743982603e-02
1.931318314923413659e-02
2.253204700743982603e-02
6.437727716411378864e-03
1.480677374774616029e-01
3.411995689698028023e-01
3.830447991264767649e-01
3.315429773951857340e-01
4.538598040070018214e-01
5.472068558949667594e-01
5.793954944770236537e-01
5.761766306188178532e-01
4.763918510144416474e-01
3.927013907010938332e-01
2.961354749549231502e-01
1.995695592087525783e-01
0.000000000000000000e+00
-1.770375122013127800e-01
-1.673809206266957395e-01
-1.802563760595184694e-01
-2.381959255072208237e-01
-2.285393339326037832e-01
-2.864788833803061374e-01
-1.609431929102843328e-01
-1.094413711789933574e-01
-5.472068558949667177e-02
-4.184523015667392792e-02
-4.506409401487961736e-02
-3.572938882608312494e-01
-1.055787345491465468e+00
-1.145915533521224550e+00
-5.117993534547041756e-01
9.431271104542662265e-01
2.900196336243324069e+00
6.994591163880957474e+00
6.994591163880957474e+00
2.813287012071770565e+00
7.499952789619250826e-01
-1.899129676341355100e-01
-5.439879920367610699e-01
-2.671657002310720008e-01
-2.027884230669582677e-01
-3.379807051115971128e-01
-4.474220762905904425e-01
-3.862636629846823988e-01
-4.281088931413563614e-01
-4.699541232980302685e-01
-4.699541232980302685e-01
-4.699541232980302685e-01
-4.602975317234132002e-01
-4.635163955816188897e-01
-4.281088931413563614e-01
-4.248900292831506720e-01
-3.894825268428880882e-01
-3.444184328280084917e-01
-3.894825268428880882e-01
-4.731729871562359580e-01
-4.281088931413563614e-01
-4.667352594398245791e-01
-5.246748088875269334e-01
-5.407691281785553805e-01
-5.568634474695838277e-01
-5.375502643203496911e-01
-6.083652692008748586e-01
-6.276784523501088842e-01
-6.437727716411373313e-01
-6.019275414844634797e-01
-5.407691281785553805e-01
-4.409843485741790636e-01
-3.894825268428880882e-01
-3.315429773951857340e-01
-2.221016062161924043e-01
-1.384111459028445346e-01
-3.540750244026255600e-02
1.287545543282274385e-02
1.287545543282274385e-02
9.656591574617068297e-03
4.828295787308529985e-02
5.472068558949667871e-02
-3.218863858205689432e-03
4.184523015667393486e-02
1.609431929102843328e-02
3.862636629846824543e-02
3.218863858205686657e-02
0.000000000000000000e+00
0.000000000000000000e+00
6.437727716411378864e-03
9.656591574617054419e-03
3.218863858205689432e-03
3.218863858205689432e-03
-2.253204700743980521e-02
-6.437727716411371925e-03
3.218863858205689432e-03
-6.437727716411373313e-02
-2.253204700743980521e-02
-6.437727716411371925e-03
0.000000000000000000e+00
2.575091086564550158e-02
4.184523015667393486e-02
7.725273259693649086e-02
9.656591574617054419e-03
-6.437727716411371925e-03
3.218863858205686657e-02
4.184523015667393486e-02
-9.656591574617061358e-03
5.472068558949667871e-02
6.115841330590804370e-02
3.218863858205689432e-03
-6.437727716411371925e-03
3.218863858205686657e-02
-6.437727716411371925e-03
-1.609431929102843328e-02
1.609431929102843328e-02
-6.437727716411371925e-03
-4.506409401487961042e-02
9.656591574617054419e-03
4.184523015667393486e-02
-4.828295787308529985e-02
3.540750244026255600e-02
2.607279725146606220e-01
4.055768461339165354e-01
3.766070714100653305e-01
4.055768461339165354e-01
5.053616257382927968e-01
5.793954944770236537e-01
6.180218607754918159e-01
5.761766306188179643e-01
4.506409401487961874e-01
3.701693436936540071e-01
1.899129676341355100e-01
0.000000000000000000e+00
-1.448488736192559134e-01
-1.705997844849014011e-01
-1.995695592087525783e-01
-2.060072869251639571e-01
-2.156638784997809977e-01
-2.414147893654265131e-01
-1.416300097610502240e-01
-1.190979627536104257e-01
-7.081500488052511200e-02
-6.115841330590804370e-02
-6.437727716411378864e-03
-1.963506953505469166e-01
-8.562177862827128338e-01
-1.271451223991246327e+00
-8.562177862827128338e-01
2.864788833803061374e-01
2.108355827124724691e+00
6.212407246336975497e+00
7.207036178522532310e+00
3.749976394809625191e+00
1.129821214230196214e+00
-1.834752399177241589e-01
-4.763918510144417029e-01
-2.349770616490151343e-01
-1.641620567684900223e-01
-2.575091086564549325e-01
-3.057920665295402740e-01
-3.862636629846825098e-01
-4.281088931413563614e-01
-3.766070714100654415e-01
-3.669504798354483732e-01
-4.184523015667392931e-01
-4.474220762905904980e-01
-4.248900292831506720e-01
-4.055768461339165354e-01
-4.023579822757108460e-01
-4.120145738503279143e-01
-4.152334377085336037e-01
-4.120145738503279143e-01
-3.411995689698028578e-01
-3.605127521190369944e-01
-4.442032124323848086e-01
-4.538598040070018769e-01
-4.667352594398246346e-01
-5.343314004621441127e-01
-5.697389029024065854e-01
-5.375502643203496911e-01
-5.568634474695838277e-01
-5.600823113277895171e-01
-4.635163955816189452e-01
-4.796107148726473923e-01
-4.635163955816189452e-01
-3.830447991264768204e-01
-2.060072869251639849e-01
-1.738186483431070906e-01
-6.759614102231945032e-02
-3.862636629846824543e-02
6.437727716411351109e-03
1.480677374774616029e-01
1.705997844849014011e-01
1.030036434625819786e-01
3.540750244026255600e-02
2.253204700743981215e-02
4.184523015667393486e-02
6.115841330590805758e-02
8.690932417155354528e-02
6.437727716411378864e-03
-2.253204700743979827e-02
1.609431929102843328e-02
9.334705188796491027e-02
4.184523015667392098e-02
-6.759614102231942256e-02
-1.609431929102844716e-02
4.506409401487961042e-02
7.725273259693647698e-02
-1.609431929102844716e-02
-6.115841330590807146e-02
-1.609431929102844716e-02
-1.190979627536104257e-01
1.287545543282274385e-02
-1.480677374774616306e-01
-1.609431929102844716e-02
2.575091086564548770e-02
-1.609431929102844716e-02
-3.862636629846824543e-02
6.437727716411364987e-03
0.000000000000000000e+00
3.218863858205685269e-02
3.862636629846823155e-02
1.609431929102841941e-02
-1.609431929102844716e-02
-1.931318314923413659e-02
0.000000000000000000e+00
-1.609431929102844716e-02
5.793954944770235427e-02
4.506409401487961042e-02
5.472068558949666484e-02
-3.218863858205686657e-02
1.931318314923410884e-02
8.047159645514215254e-02
7.725273259693647698e-02
5.472068558949666484e-02
2.575091086564548770e-02
1.931318314923410884e-02
3.218863858205685269e-02
1.705997844849014011e-01
3.251052496787743551e-01
3.991391184175051565e-01
3.927013907010937777e-01
4.763918510144415919e-01
6.469916354993431318e-01
7.274632319544852566e-01
6.212407246336975053e-01
5.021427618800871073e-01
5.085804895964984862e-01
3.669504798354482622e-01
1.931318314923411994e-01
4.506409401487961042e-02
-1.094413711789933574e-01
-1.802563760595184694e-01
-1.512866013356673200e-01
-1.190979627536104257e-01
-1.738186483431070906e-01
-1.802563760595184694e-01
-1.030036434625820063e-01
-1.223168266118160874e-01
-6.759614102231942256e-02
-9.656591574617068297e-03
-7.081500488052511200e-02
-5.633011751859952065e-01
-1.174885308245075866e+00
-1.216730538401749495e+00
-5.697389029024065854e-01
1.030036434625819730e+00
3.289678863086212157e+00
7.258538000253823341e+00
6.798240468530410752e+00
2.204921742870895596e+00
4.120145738503279143e-01
-4.635163955816189452e-01
-4.409843485741791191e-01
-1.995695592087525783e-01
-1.738186483431070628e-01
-2.027884230669582677e-01
-3.251052496787744106e-01
-4.120145738503279143e-01
-3.766070714100653305e-01
-4.055768461339165354e-01
-4.281088931413563614e-01
-3.766070714100653305e-01
-3.830447991264767094e-01
-4.120145738503279143e-01
-3.830447991264767094e-01
-3.283241135369801000e-01
-2.993543388131288951e-01
-3.572938882608311939e-01
-3.315429773951857895e-01
-3.508561605444198150e-01
-4.055768461339165354e-01
-3.444184328280085472e-01
-3.444184328280085472e-01
-4.216711654249449825e-01
-4.152334377085336037e-01
-4.570786678652075663e-01
-4.828295787308530818e-01
-4.055768461339165354e-01
-4.023579822757108460e-01
-4.635163955816189452e-01
-4.152334377085336037e-01
-2.639468363728663114e-01
-2.060072869251639571e-01
-1.416300097610502240e-01
-6.437727716411378864e-03
0.000000000000000000e+00
0.000000000000000000e+00
2.575091086564548770e-02
4.828295787308530679e-02
4.506409401487961736e-02
5.793954944770236121e-02
2.253204700743980521e-02
-4.184523015667392792e-02
1.609431929102843328e-02
5.472068558949667177e-02
-1.287545543282275079e-02
0.000000000000000000e+00
7.081500488052511200e-02
3.862636629846823849e-02
1.609431929102843328e-02
2.896977472385117713e-02
5.472068558949667177e-02
-1.609431929102844022e-02
4.184523015667392792e-02
7.403386873873080143e-02
8.690932417155354528e-02
6.759614102231942256e-02
5.472068558949667177e-02
2.575091086564549117e-02
8.690932417155354528e-02
1.190979627536103980e-01
4.828295787308529985e-02
9.656591574617061358e-03
-3.218863858205689432e-03
1.609431929102843328e-02
5.150182173129098928e-02
5.472068558949667177e-02
-3.218863858205689432e-03
0.000000000000000000e+00
2.896977472385117713e-02
5.150182173129098928e-02
0.000000000000000000e+00
-1.287545543282275079e-02
3.540750244026255600e-02
5.150182173129098928e-02
1.609431929102843328e-02
1.609431929102843328e-02
0.000000000000000000e+00
-3.540750244026256294e-02
-3.218863858205689432e-03
-6.115841330590805064e-02
-3.218863858205687350e-02
-1.931318314923412965e-02
-6.115841330590805064e-02
-1.062225073207876680e-01
-1.931318314923412965e-02
-3.218863858205689432e-03
-6.759614102231942256e-02
-7.081500488052511200e-02
1.609431929102843328e-02
1.384111459028445346e-01
2.478525170818379197e-01
2.832600195221004480e-01
2.961354749549232057e-01
4.313277569995620508e-01
5.117993534547041756e-01
4.828295787308530818e-01
3.862636629846823988e-01
3.251052496787744106e-01
2.092261507833696466e-01
5.150182173129098928e-02
0.000000000000000000e+00
-6.437727716411373313e-02
-1.641620567684900223e-01
-2.092261507833696188e-01
-2.124450146415753082e-01
-2.414147893654265131e-01
-3.122297942459516529e-01
-2.414147893654265131e-01
-9.656591574617062745e-02
-1.062225073207876958e-01
-9.978477960437631689e-02
-5.793954944770240978e-02
-2.478525170818378642e-01
-8.787498332901525488e-01
-1.129821214230195991e+00
-7.145877765216624988e-01
3.444184328280084917e-01
2.031103094527788588e+00
5.771422897762796822e+00
7.364760507574611204e+00
3.457059783712907564e+00
1.094413711789933519e+00
-2.124450146415753915e-01
-6.534293632157545106e-01
-3.959202545592994671e-01
-2.542902447982492431e-01
-3.315429773951857895e-01
-3.411995689698028578e-01
-4.087957099921222248e-01
-4.506409401487961874e-01
-4.281088931413563614e-01
-4.377654847159734297e-01
-5.021427618800872184e-01
-4.892673064472644606e-01
-4.152334377085336037e-01
-4.538598040070018769e-01
-4.538598040070018769e-01
-4.281088931413563614e-01
-3.669504798354483732e-01
-3.572938882608313049e-01
-3.701693436936540627e-01
-4.635163955816189452e-01
-5.085804895964985972e-01
-4.796107148726473923e-01
-5.311125366039383122e-01
-5.633011751859952065e-01
-4.957050341636758395e-01
-5.407691281785553805e-01
-5.922709499098464114e-01
-5.697389029024065854e-01
-5.021427618800872184e-01
-4.570786678652075663e-01
-3.766070714100654415e-01
-3.605127521190369944e-01
-3.090109303877459634e-01
-2.993543388131288951e-01
-8.369046031334786973e-02
0.000000000000000000e+00
0.000000000000000000e+00
1.931318314923410884e-02
2.896977472385119101e-02
-1.931318314923410884e-02
6.437727716411378864e-03
5.472068558949667871e-02
3.862636629846824543e-02
1.931318314923412272e-02
2.896977472385117713e-02
-3.218863858205689432e-03
-1.609431929102843328e-02
3.218863858205686657e-02
-3.540750244026255600e-02
-4.184523015667393486e-02
0.000000000000000000e+00
-3.540750244026255600e-02
3.218863858205686657e-02
1.931318314923412272e-02
-1.931318314923412272e-02
-6.437727716411374701e-02
6.437727716411378864e-03
6.437727716411373313e-02
2.575091086564548770e-02
0.000000000000000000e+00
0.000000000000000000e+00
-2.253204700743981215e-02
2.253204700743981215e-02
1.512866013356672923e-01
9.656591574617059970e-02
1.609431929102843328e-02
7.403386873873080143e-02
1.416300097610502240e-01
1.319734181864331557e-01
7.725273259693649086e-02
6.115841330590805064e-02
6.437727716411373313e-02
8.047159645514216642e-02
1.416300097610502240e-01
1.062225073207876680e-01
1.963506953505468888e-01
1.834752399177241311e-01
1.480677374774616029e-01
5.472068558949667871e-02
5.472068558949667871e-02
5.472068558949667871e-02
1.834752399177241311e-01
2.832600195221004480e-01
3.830447991264767094e-01
3.540750244026255600e-01
4.635163955816188897e-01
6.920557295142226728e-01
6.566482270739600891e-01
6.051464053426691692e-01
5.890520860516407220e-01
5.375502643203496911e-01
4.087957099921222248e-01
2.478525170818378642e-01
1.770375122013127800e-01
4.506409401487961736e-02
-6.115841330590805758e-02
-1.287545543282274385e-02
-2.896977472385117713e-02
-2.253204700743981215e-02
1.609431929102843328e-02
-1.126602350371990330e-01
-8.690932417155354528e-02
-5.472068558949667871e-02
-7.725273259693647698e-02
-4.184523015667393486e-02
-1.351922820446388451e-01
-6.952745933724283622e-01
-1.081538256357110761e+00
-5.150182173129099761e-01
5.987086776262576793e-01
2.037540822244199745e+00
4.673790322114657059e+00
7.081500488052510534e+00
3.994610048033257588e+00
1.641620567684900278e+00
4.828295787308530818e-01
-4.860484425890587712e-01
-6.920557295142226728e-01
-3.637316159772425728e-01
-2.221016062161923765e-01
-2.864788833803061374e-01
-3.766070714100653305e-01
-3.830447991264767094e-01
-3.733882075518596411e-01
-3.605127521190368833e-01
-3.411995689698028578e-01
-3.959202545592994671e-01
-3.347618412533914789e-01
-3.315429773951857895e-01
-3.637316159772425728e-01
-3.862636629846823988e-01
-3.476372966862142366e-01
-3.830447991264767094e-01
-4.055768461339165354e-01
-4.313277569995620508e-01
-4.313277569995620508e-01
-4.055768461339165354e-01
-5.922709499098464114e-01
-4.860484425890587712e-01
-5.826143583352293431e-01
-6.373350439247260635e-01
-5.890520860516407220e-01
-5.600823113277895171e-01
-5.536445836113781382e-01
-4.828295787308530818e-01
-3.927013907010937777e-01
-3.411995689698028578e-01
-1.899129676341355377e-01
-7.403386873873080143e-02
-3.218863858205686657e-02
0.000000000000000000e+00
0.000000000000000000e+00
1.931318314923413659e-02
5.793954944770235427e-02
1.030036434625820063e-01
6.759614102231942256e-02
-3.218863858205689432e-03
-9.656591574617068297e-03
4.184523015667396262e-02
3.218863858205689432e-02
8.690932417155355916e-02
1.255356904700217768e-01
3.540750244026258375e-02
3.218863858205689432e-02
5.150182173129097540e-02
2.253204700743982603e-02
-2.253204700743982603e-02
1.931318314923413659e-02
-7.403386873873080143e-02
-1.931318314923413659e-02
5.472068558949666484e-02
9.656591574617068297e-03
-3.540750244026255600e-02
-1.931318314923413659e-02
1.287545543282275773e-02
0.000000000000000000e+00
-1.609431929102844716e-02
3.218863858205689432e-03
-9.012818802975924859e-02
-2.896977472385120489e-02
3.218863858205683881e-02
-1.609431929102844716e-02
0.000000000000000000e+00
1.931318314923413659e-02
1.287545543282275773e-02
-3.218863858205689432e-03
9.656591574617068297e-03
1.287545543282275773e-02
1.287545543282275773e-02
-3.540750244026255600e-02
1.609431929102844716e-02
1.287545543282275773e-02
-9.012818802975924859e-02
5.793954944770235427e-02
1.995695592087525783e-01
3.122297942459515974e-01
3.605127521190369388e-01
3.605127521190369388e-01
5.053616257382929078e-01
5.987086776262577903e-01
5.568634474695837167e-01
4.860484425890587157e-01
4.442032124323847531e-01
3.669504798354483177e-01
1.287545543282274663e-01
1.287545543282275773e-02
-3.862636629846824543e-02
-1.577243290520786712e-01
-2.510713809400436092e-01
-2.124450146415753360e-01
-2.414147893654265131e-01
-2.639468363728663114e-01
-2.285393339326037832e-01
-1.899129676341355377e-01
-1.126602350371990330e-01
-9.012818802975922083e-02
-1.609431929102843328e-02
-1.416300097610502240e-01
-6.373350439247259525e-01
-9.785346128945288102e-01
-6.051464053426691692e-01
4.570786678652075663e-01
1.931318314923412105e+00
4.680228049831068660e+00
6.984934572306340073e+00
4.126583466219690521e+00
1.599775337528226427e+00
3.798259352682710754e-01
-5.214559450293212439e-01
-6.630859547903714679e-01
-3.733882075518596966e-01
-2.381959255072208237e-01
-2.671657002310720008e-01
-3.669504798354483177e-01
-3.991391184175051565e-01
-4.474220762905904425e-01
-4.892673064472644051e-01
-4.281088931413563614e-01
-3.991391184175051565e-01
-4.120145738503279143e-01
-4.281088931413563614e-01
-3.862636629846823988e-01
-3.991391184175051565e-01
-4.506409401487961319e-01
-3.315429773951857340e-01
-3.669504798354483177e-01
-4.602975317234132002e-01
-4.731729871562359580e-01
-4.216711654249449825e-01
-5.504257197531724488e-01
-5.826143583352293431e-01
-5.439879920367610699e-01
-5.761766306188179643e-01
-6.341161800665202630e-01
-5.922709499098464114e-01
-6.051464053426691692e-01
-5.600823113277895171e-01
-5.085804895964985972e-01
-4.345466208577677403e-01
-3.959202545592994671e-01
-1.705997844849014011e-01
-1.094413711789933574e-01
-3.862636629846824543e-02
0.000000000000000000e+00
1.255356904700217768e-01
1.384111459028445346e-01
1.126602350371990469e-01
1.062225073207876680e-01
1.351922820446388451e-01
7.081500488052511200e-02
1.030036434625819786e-01
1.287545543282274663e-01
6.115841330590804370e-02
1.223168266118160874e-01
1.287545543282274663e-01
3.862636629846824543e-02
3.218863858205675554e-03
8.369046031334784197e-02
1.062225073207876680e-01
1.062225073207876680e-01
5.472068558949666484e-02
0.000000000000000000e+00
-2.896977472385119101e-02
-3.862636629846824543e-02
6.437727716411364987e-03
-1.609431929102843328e-02
9.656591574617054419e-03
5.472068558949666484e-02
-7.081500488052511200e-02
-3.540750244026255600e-02
5.472068558949666484e-02
3.862636629846824543e-02
0.000000000000000000e+00
-6.437727716411378864e-03
-3.540750244026255600e-02
-1.448488736192559134e-01
-6.437727716411378864e-03
9.656591574617054419e-03
3.218863858205675554e-03
2.575091086564548770e-02
0.000000000000000000e+00
-4.184523015667393486e-02
-4.828295787308530679e-02
-4.828295787308530679e-02
-1.287545543282275773e-02
-4.828295787308530679e-02
5.150182173129097540e-02
1.641620567684900500e-01
3.025732026713345846e-01
2.671657002310720008e-01
2.575091086564549325e-01
4.828295787308530262e-01
6.148029969172861264e-01
5.633011751859950955e-01
4.699541232980302685e-01
4.216711654249449825e-01
4.474220762905904980e-01
2.092261507833696743e-01
9.656591574617059970e-02
0.000000000000000000e+00
-1.480677374774616029e-01
-2.027884230669582677e-01
-1.802563760595184694e-01
-1.705997844849014011e-01
-2.575091086564549325e-01
-2.381959255072208514e-01
-8.047159645514216642e-02
-1.480677374774615751e-01
-9.656591574617059970e-02
-1.094413711789933574e-01
-1.705997844849014011e-01
-6.019275414844633687e-01
-1.158790988954047307e+00
-8.787498332901524378e-01
-5.793954944770235427e-02
1.387330322886651146e+00
4.268213475980741300e+00
7.149096629074830567e+00
5.101899215256014308e+00
1.931318314923412105e+00
1.512866013356672923e-01
-5.536445836113781382e-01
-5.407691281785553805e-01
-2.864788833803061374e-01
-2.607279725146606220e-01
-2.832600195221004480e-01
-4.087957099921222248e-01
-4.699541232980302130e-01
-4.699541232980302130e-01
-4.248900292831506720e-01
-4.248900292831506720e-01
-3.959202545592994671e-01
-3.701693436936539516e-01
-4.087957099921222248e-01
-4.152334377085336037e-01
-3.991391184175051565e-01
-3.862636629846823988e-01
-4.184523015667392931e-01
-3.508561605444199261e-01
-3.830447991264767094e-01
-4.345466208577677403e-01
-4.152334377085336037e-01
-4.023579822757108460e-01
-4.345466208577677403e-01
-4.635163955816188341e-01
-5.633011751859952065e-01
-5.568634474695838277e-01
-4.860484425890586602e-01
-4.345466208577677403e-01
-4.377654847159734297e-01
-4.023579822757108460e-01
-3.154486581041573423e-01
-2.703845640892776903e-01
-1.770375122013127800e-01
-5.793954944770235427e-02
0.000000000000000000e+00
7.081500488052511200e-02
8.047159645514216642e-02
1.287545543282274732e-02
0.000000000000000000e+00
4.506409401487961736e-02
3.218863858205686657e-02
9.656591574617059623e-03
2.575091086564549464e-02
9.656591574617059623e-03
-3.218863858205686657e-02
4.184523015667392792e-02
6.759614102231942256e-02
0.000000000000000000e+00
-9.012818802975922083e-02
-6.437727716411373660e-03
0.000000000000000000e+00
5.150182173129098928e-02
6.115841330590805064e-02
6.759614102231942256e-02
-1.609431929102843328e-02
-3.862636629846824543e-02
0.000000000000000000e+00
3.218863858205686657e-02
4.828295787308529985e-02
-6.437727716411373660e-03
-5.150182173129098928e-02
-4.184523015667392792e-02
4.184523015667392792e-02
3.218863858205686657e-02
-5.150182173129098928e-02
-3.540750244026255600e-02
3.218863858205685963e-03
4.184523015667392792e-02
5.150182173129098928e-02
3.218863858205685963e-03
-1.931318314923412272e-02
-1.609431929102843328e-02
2.253204700743980521e-02
-3.218863858205686657e-02
-1.931318314923412272e-02
9.656591574617061358e-02
5.472068558949667177e-02
2.253204700743980521e-02
1.931318314923412272e-02
3.218863858205686657e-02
1.609431929102843328e-02
1.480677374774615751e-01
3.251052496787744106e-01
3.605127521190369388e-01
3.605127521190369388e-01
4.828295787308530262e-01
6.180218607754919269e-01
6.791802740813999151e-01
6.791802740813999151e-01
5.665200390442008960e-01
4.538598040070018769e-01
3.637316159772426283e-01
2.060072869251639571e-01
0.000000000000000000e+00
-8.369046031334785585e-02
-9.656591574617061358e-02
-1.545054651938729817e-01
-1.319734181864331557e-01
-1.995695592087525783e-01
-1.834752399177241311e-01
-1.030036434625819786e-01
-5.472068558949666484e-02
-1.223168266118161152e-01
-9.656591574617059970e-02
-8.047159645514215254e-02
-3.444184328280084362e-01
-1.013942115334791394e+00
-1.239262585409189432e+00
-7.693084621111591082e-01
3.766070714100653860e-01
2.266080156176803584e+00
6.965621389157106158e+00
7.168409812224064481e+00
3.238177041354921126e+00
8.336857392752728968e-01
-3.572938882608311939e-01
-4.667352594398245236e-01
-1.577243290520786434e-01
-1.287545543282274385e-01
-3.090109303877459634e-01
-4.281088931413563614e-01
-3.411995689698027467e-01
-3.283241135369801000e-01
-3.379807051115970573e-01
-3.798259352682710199e-01
-4.538598040070017658e-01
-4.506409401487960764e-01
-3.444184328280084362e-01
-3.540750244026255045e-01
-2.607279725146606220e-01
-3.991391184175051565e-01
-3.862636629846823988e-01
-3.927013907010937777e-01
-3.379807051115970573e-01
-3.379807051115970573e-01
-3.991391184175051565e-01
-3.508561605444198150e-01
-3.894825268428880882e-01
-4.055768461339165354e-01
-4.313277569995620508e-01
-4.345466208577677403e-01
-4.602975317234131447e-01
-4.506409401487960764e-01
-3.669504798354482622e-01
-3.540750244026255045e-01
-3.057920665295402740e-01
-2.575091086564549325e-01
-1.319734181864331279e-01
-3.862636629846821767e-02
0.000000000000000000e+00
3.862636629846824543e-02
6.437727716411378864e-03
1.287545543282274385e-02
9.012818802975923471e-02
1.030036434625819786e-01
7.403386873873080143e-02
8.047159645514216642e-02
8.047159645514216642e-02
7.081500488052511200e-02
7.725273259693649086e-02
7.403386873873080143e-02
5.793954944770236121e-02
8.690932417155354528e-02
8.047159645514216642e-02
8.047159645514216642e-02
8.047159645514216642e-02
8.369046031334785585e-02
2.575091086564549464e-02
4.506409401487961736e-02
4.828295787308529985e-02
6.437727716411373313e-02
3.862636629846824543e-02
7.403386873873080143e-02
7.403386873873080143e-02
9.656591574617054419e-03
4.828295787308529985e-02
2.896977472385118407e-02
-1.287545543282274385e-02
2.253204700743980521e-02
3.540750244026255600e-02
0.000000000000000000e+00
1.931318314923412272e-02
4.828295787308529985e-02
2.896977472385118407e-02
-3.862636629846824543e-02
1.931318314923412272e-02
1.931318314923412272e-02
-3.862636629846824543e-02
-2.575091086564550158e-02
0.000000000000000000e+00
-1.287545543282274385e-02
-4.506409401487961042e-02
-2.575091086564550158e-02
-6.759614102231942256e-02
-3.862636629846824543e-02
-2.575091086564550158e-02
-6.437727716411373313e-02
-9.012818802975922083e-02
-5.150182173129098928e-02
-1.609431929102843328e-02
9.656591574617059970e-02
2.800411556638947586e-01
3.508561605444198706e-01
2.961354749549232057e-01
4.184523015667392931e-01
5.826143583352293431e-01
5.665200390442008960e-01
4.667352594398245791e-01
4.828295787308530262e-01
4.248900292831506720e-01
2.736034279474833797e-01
9.012818802975922083e-02
0.000000000000000000e+00
-1.223168266118161429e-01
-9.012818802975924859e-02
-9.334705188796493802e-02
-1.641620567684900500e-01
-1.770375122013128077e-01
-1.512866013356672923e-01
-9.012818802975924859e-02
-9.656591574617062745e-02
-4.506409401487959654e-02
-1.126602350371990746e-01
-1.319734181864332112e-01
-6.083652692008749696e-01
-1.232824857692778053e+00
-1.190979627536104202e+00
-3.218863858205686657e-01
1.136258941946607370e+00
3.405557961981616533e+00
7.467764151037193265e+00
5.381940370919908290e+00
1.857284446184681359e+00
2.124450146415753360e-01
-4.796107148726473368e-01
-4.442032124323847531e-01
-1.834752399177241311e-01
-2.092261507833696466e-01
-3.766070714100653860e-01
-4.087957099921222803e-01
-4.442032124323847531e-01
-5.278936727457326228e-01
-5.053616257382929078e-01
-4.570786678652075108e-01
-4.570786678652075108e-01
-4.957050341636757840e-01
-5.311125366039384232e-01
-4.892673064472644051e-01
-4.828295787308530262e-01
-4.796107148726473368e-01
-4.248900292831506165e-01
-4.602975317234132002e-01
-4.860484425890587157e-01
-4.957050341636757840e-01
-5.311125366039384232e-01
-5.633011751859953176e-01
-5.697389029024066964e-01
-5.826143583352294542e-01
-6.663048186485771573e-01
-6.051464053426691692e-01
-5.633011751859953176e-01
-5.793954944770236537e-01
-5.826143583352294542e-01
-4.442032124323847531e-01
-4.184523015667392376e-01
-3.733882075518596966e-01
-2.317581977908094726e-01
-1.802563760595184417e-01
-1.512866013356672368e-01
-7.081500488052511200e-02
3.218863858205689432e-03
-2.349770616490151620e-01
0.000000000000000000e+00
6.437727716411373313e-02
7.725273259693643535e-02
6.437727716411373313e-02
9.656591574617068297e-03
-6.437727716411378864e-03
2.253204700743982603e-02
4.828295787308528597e-02
0.000000000000000000e+00
-6.115841330590804370e-02
2.575091086564545995e-02
-6.437727716411373313e-02
-6.759614102231942256e-02
-4.184523015667396262e-02
6.437727716411323353e-03
-4.828295787308534148e-02
-3.218863858205689432e-03
-9.656591574617012785e-03
-3.218863858205633921e-03
3.862636629846827319e-02
-6.437727716411323353e-03
-9.656591574617012785e-03
6.437727716411378864e-03
1.931318314923413659e-02
3.218863858205689432e-02
3.540750244026258375e-02
5.150182173129097540e-02
6.437727716411378864e-03
0.000000000000000000e+00
2.253204700743982603e-02
3.862636629846827319e-02
1.931318314923413659e-02
4.828295787308528597e-02
5.150182173129097540e-02
-6.437727716411378864e-03
-1.287545543282275773e-02
5.150182173129097540e-02
8.369046031334786973e-02
2.896977472385120489e-02
1.931318314923413659e-02
8.047159645514218029e-02
8.047159645514218029e-02
6.115841330590804370e-02
7.081500488052511200e-02
8.369046031334786973e-02
1.126602350371990469e-01
1.319734181864331835e-01
6.437727716411373313e-02
8.047159645514218029e-02
1.866941037759298483e-01
2.253204700743980937e-01
3.122297942459516529e-01
3.701693436936540071e-01
4.924861703054700945e-01
5.600823113277895171e-01
5.954898137680521009e-01
6.244595884919033058e-01
5.600823113277895171e-01
4.892673064472644051e-01
4.087957099921222248e-01
2.768222918056890691e-01
9.656591574617062745e-02
-6.437727716411378864e-03
3.540750244026258375e-02
0.000000000000000000e+00
-3.218863858205683881e-02
-1.416300097610502240e-01
-7.403386873873080143e-02
-2.253204700743977051e-02
0.000000000000000000e+00
-7.725273259693649086e-02
-6.437727716411373313e-02
-7.725273259693649086e-02
-2.736034279474834352e-01
-8.208102838424500280e-01
-9.881912044691458785e-01
-3.894825268428881437e-01
6.759614102231942256e-01
2.475306306960173508e+00
6.386225894680082504e+00
6.811115923963233065e+00
2.987105660414877573e+00
1.181323035961487022e+00
-6.437727716411378864e-03
-5.761766306188180753e-01
-5.150182173129098651e-01
-2.092261507833696466e-01
-2.607279725146606775e-01
-2.639468363728663669e-01
-3.090109303877459079e-01
-3.669504798354483177e-01
-4.120145738503279698e-01
-4.087957099921222803e-01
-3.605127521190369388e-01
-2.800411556638948141e-01
-2.929166110967175718e-01
-1.577243290520786712e-01
-3.218863858205686657e-01
-2.961354749549232612e-01
-2.768222918056891246e-01
-2.510713809400436092e-01
-2.703845640892777458e-01
-3.605127521190369388e-01
-3.540750244026255600e-01
-3.315429773951857340e-01
-4.667352594398245791e-01
-6.019275414844633687e-01
-3.991391184175052120e-01
-3.605127521190369388e-01
-4.635163955816188897e-01
-5.085804895964984862e-01
-4.055768461339165909e-01
-4.055768461339165909e-01
-3.508561605444198706e-01
-2.188827423579867149e-01
-8.690932417155355916e-02
0.000000000000000000e+00
0.000000000000000000e+00
0.000000000000000000e+00
0.000000000000000000e+00
0.000000000000000000e+00
5.793954944770235427e-02
8.047159645514216642e-02
9.656591574617068297e-03
3.218863858205686657e-02
-2.575091086564548770e-02
0.000000000000000000e+00
2.575091086564548770e-02
0.000000000000000000e+00
2.253204700743979827e-02
2.896977472385117713e-02
9.656591574617040541e-03
-2.575091086564548770e-02
-4.506409401487961042e-02
0.000000000000000000e+00
-9.656591574617040541e-03
-3.218863858205689432e-03
5.150182173129100316e-02
2.575091086564548770e-02
-2.253204700743979827e-02
-3.862636629846824543e-02
-3.862636629846824543e-02
-7.403386873873078755e-02
1.931318314923413659e-02
2.575091086564548770e-02
3.218863858205686657e-02
5.793954944770235427e-02
4.828295787308531373e-02
2.253204700743982603e-02
9.656591574617062745e-02
9.334705188796493802e-02
6.437727716411373313e-02
6.115841330590804370e-02
5.793954944770235427e-02
4.828295787308531373e-02
7.725273259693649086e-02
9.978477960437631689e-02
4.828295787308531373e-02
8.369046031334786973e-02
1.094413711789933852e-01
1.287545543282274663e-01
9.978477960437631689e-02
8.690932417155355916e-02
8.047159645514218029e-02
6.437727716411373313e-02
2.027884230669582677e-01
3.733882075518596411e-01
4.087957099921222248e-01
3.927013907010937777e-01
5.343314004621440017e-01
6.566482270739600891e-01
6.083652692008748586e-01
5.472068558949667594e-01
5.439879920367610699e-01
4.892673064472644606e-01
3.090109303877459634e-01
2.446336532236322303e-01
1.158790988954047085e-01
2.896977472385117713e-02
-5.150182173129098928e-02
-1.255356904700217768e-01
-1.062225073207876680e-01
-1.062225073207876680e-01
-1.577243290520786434e-01
-1.609431929102843328e-01
-9.656591574617059970e-02
-6.115841330590804370e-02
-1.030036434625819786e-01
-6.437727716411373313e-02
-2.253204700743980937e-01
-7.660895982529534187e-01
-1.075100528640699382e+00
-5.375502643203496911e-01
5.311125366039384232e-01
2.089042643975490776e+00
5.858332221934349882e+00
6.894806384276581213e+00
3.675942526070894445e+00
1.384111459028445346e+00
9.978477960437630301e-02
-5.858332221934350326e-01
-5.117993534547041756e-01
-3.122297942459515974e-01
-3.411995689698028023e-01
-3.411995689698028023e-01
-3.379807051115971128e-01
-4.120145738503279143e-01
-4.184523015667392931e-01
-3.637316159772426283e-01
-4.087957099921222248e-01
-4.152334377085336037e-01
-3.444184328280084917e-01
-3.733882075518596966e-01
-4.281088931413563614e-01
-3.830447991264767649e-01
-3.637316159772426283e-01
-4.087957099921222248e-01
-3.959202545592995226e-01
-4.055768461339165354e-01
-4.087957099921222248e-01
-4.667352594398245791e-01
-4.989238980218814734e-01
-5.182370811711155545e-01
-5.504257197531724488e-01
-5.278936727457326228e-01
-5.633011751859952065e-01
-5.504257197531724488e-01
-4.957050341636757840e-01
-4.989238980218814734e-01
-4.667352594398245791e-01
-3.637316159772426283e-01
-2.188827423579867149e-01
-1.705997844849014011e-01
-4.828295787308529985e-02
0.000000000000000000e+00
0.000000000000000000e+00
3.862636629846827319e-02
8.369046031334786973e-02
4.828295787308534148e-02
8.369046031334786973e-02
9.334705188796493802e-02
2.575091086564551546e-02
4.828295787308534148e-02
5.150182173129103091e-02
6.437727716411373313e-02
8.047159645514218029e-02
1.062225073207876958e-01
4.828295787308534148e-02
0.000000000000000000e+00
4.506409401487965205e-02
1.609431929102843606e-01
8.690932417155355916e-02
5.150182173129103091e-02
6.437727716411378864e-03
-9.656591574617012785e-03
4.184523015667396262e-02
6.437727716411373313e-02
-2.896977472385114938e-02
-2.575091086564545995e-02
0.000000000000000000e+00
1.287545543282275773e-02
1.931318314923413659e-02
-3.218863858205689432e-03
6.437727716411378864e-03
-1.609431929102839165e-02
-1.287545543282270222e-02
2.253204700743982603e-02
5.472068558949672035e-02
3.218863858205689432e-03
0.000000000000000000e+00
5.793954944770240978e-02
4.184523015667396262e-02
-9.656591574617012785e-03
5.150182173129103091e-02
6.437727716411378864e-03
1.609431929102844716e-02
1.609431929102844716e-02
-4.506409401487959654e-02
-2.575091086564545995e-02
-6.437727716411323353e-03
-8.369046031334784197e-02
-8.369046031334784197e-02
-1.609431929102839165e-02
-4.506409401487959654e-02
-4.828295787308528597e-02
1.094413711789933852e-01
2.993543388131288951e-01
3.251052496787744106e-01
2.929166110967175163e-01
4.602975317234132002e-01
5.600823113277895171e-01
5.697389029024064744e-01
5.729577667606122748e-01
4.924861703054700945e-01
4.731729871562359580e-01
3.701693436936539516e-01
1.030036434625819786e-01
0.000000000000000000e+00
-2.896977472385119101e-02
-9.334705188796492414e-02
-1.673809206266957395e-01
-1.480677374774616029e-01
-1.963506953505468888e-01
-2.414147893654265131e-01
-1.351922820446388451e-01
-9.656591574617059970e-02
-1.190979627536103980e-01
-6.115841330590805064e-02
1.609431929102844022e-02
-3.927013907010937777e-01
-1.010723251476585594e+00
-1.104070303364550476e+00
-5.311125366039383122e-01
8.208102838424501391e-01
2.954917021832820456e+00
7.081500488052510534e+00
6.859398881836318296e+00
2.626592908295840356e+00
6.856180017978112939e-01
-3.862636629846823988e-01
-4.474220762905904980e-01
-1.545054651938729817e-01
-2.253204700743980660e-01
-2.736034279474833797e-01
-2.961354749549232057e-01
-3.637316159772425728e-01
-3.766070714100653860e-01
-3.572938882608312494e-01
-3.540750244026255600e-01
-4.635163955816189452e-01
-3.766070714100653860e-01
-3.476372966862141811e-01
-3.508561605444198706e-01
-3.411995689698028023e-01
-3.444184328280084917e-01
-3.444184328280084917e-01
-3.605127521190369388e-01
-3.218863858205686657e-01
-3.347618412533914234e-01
-4.120145738503279143e-01
-4.248900292831506720e-01
-4.248900292831506720e-01
-4.377654847159734297e-01
-4.216711654249449825e-01
-4.216711654249449825e-01
-4.248900292831506720e-01
-4.570786678652074553e-01
-4.055768461339165354e-01
-3.572938882608311939e-01
-2.864788833803061374e-01
-2.156638784997809977e-01
-2.060072869251639294e-01
-1.126602350371990469e-01
1.931318314923413659e-02
9.012818802975923471e-02
9.334705188796492414e-02
1.062225073207876680e-01
1.255356904700217768e-01
1.351922820446388451e-01
1.062225073207876680e-01
1.190979627536104257e-01
8.690932417155354528e-02
7.403386873873080143e-02
1.030036434625819786e-01
1.126602350371990469e-01
8.690932417155354528e-02
5.150182173129098928e-02
9.334705188796492414e-02
1.158790988954047363e-01
1.545054651938729817e-01
8.047159645514218029e-02
-3.218863858205689432e-03
4.828295787308529985e-02
9.012818802975923471e-02
4.828295787308529985e-02
2.253204700743981215e-02
2.253204700743981215e-02
2.253204700743981215e-02
2.896977472385119101e-02
4.828295787308529985e-02
3.540750244026255600e-02
-1.609431929102841941e-02
0.000000000000000000e+00
3.218863858205689432e-03
-1.931318314923410884e-02
-9.656591574617068297e-03
3.218863858205686657e-02
9.656591574617068297e-03
-1.609431929102841941e-02
1.609431929102844716e-02
0.000000000000000000e+00
-4.506409401487962429e-02
-9.656591574617068297e-03
-5.150182173129097540e-02
-3.218863858205686657e-02
1.931318314923413659e-02
3.540750244026255600e-02
-2.575091086564548770e-02
-4.184523015667393486e-02
-2.896977472385117713e-02
-3.540750244026255600e-02
-2.896977472385117713e-02
-2.896977472385117713e-02
-1.030036434625819786e-01
1.030036434625819786e-01
3.218863858205687212e-01
3.862636629846823988e-01
3.186675219623630317e-01
4.602975317234132002e-01
5.600823113277895171e-01
6.244595884919033058e-01
5.439879920367610699e-01
4.474220762905904980e-01
3.798259352682710199e-01
2.285393339326037832e-01
6.115841330590807146e-02
-1.190979627536103980e-01
-2.188827423579867149e-01
-2.124450146415753360e-01
-2.478525170818378642e-01
-2.510713809400435537e-01
-2.703845640892776903e-01
-2.575091086564549325e-01
1.190979627536103980e-01
-1.030036434625819508e-01
-1.030036434625819508e-01
-1.545054651938730372e-01
-1.126602350371990746e-01
-5.150182173129098651e-01
-1.190979627536104202e+00
-1.252138040842012190e+00
-4.216711654249450381e-01
1.004285523760174215e+00
2.980667932698465972e+00
7.425918920880519636e+00
5.690951301307653587e+00
2.034321958385993945e+00
2.896977472385118269e-01
-4.184523015667393486e-01
-3.959202545592995226e-01
-1.094413711789933852e-01
-1.802563760595184417e-01
-3.251052496787743551e-01
-3.347618412533914234e-01
-3.315429773951857340e-01
-3.862636629846824543e-01
-4.184523015667393486e-01
-3.959202545592995226e-01
-4.184523015667393486e-01
-4.313277569995619953e-01
-4.506409401487961319e-01
-3.798259352682710754e-01
-3.830447991264767649e-01
-4.184523015667393486e-01
-3.991391184175052120e-01
-4.184523015667393486e-01
-4.409843485741790636e-01
-4.184523015667393486e-01
-4.281088931413563059e-01
-4.602975317234132002e-01
-4.248900292831507275e-01
-5.150182173129098651e-01
-5.890520860516406110e-01
-5.697389029024064744e-01
-5.793954944770236537e-01
-5.600823113277895171e-01
-5.311125366039384232e-01
-3.959202545592995226e-01
-4.152334377085336592e-01
-3.669504798354483177e-01
-2.607279725146606775e-01
-2.124450146415753360e-01
-9.012818802975924859e-02
0.000000000000000000e+00
-3.218863858205689432e-03
9.656591574617068297e-03
7.403386873873080143e-02
1.094413711789933297e-01
8.047159645514218029e-02
2.896977472385120489e-02
1.287545543282275773e-02
-6.437727716411373313e-02
-5.793954944770235427e-02
-1.287545543282275773e-02
3.218863858205689432e-03
-1.609431929102844716e-02
3.218863858205683881e-02
-3.218863858205689432e-03
0.000000000000000000e+00
6.115841330590804370e-02
4.506409401487959654e-02
-1.931318314923408108e-02
-3.218863858205683881e-02
0.000000000000000000e+00
-3.218863858205683881e-02
1.931318314923413659e-02
6.437727716411378864e-03
-9.656591574617012785e-03
0.000000000000000000e+00
7.403386873873080143e-02
4.828295787308534148e-02
6.437727716411378864e-03
-6.437727716411378864e-03
-9.656591574617012785e-03
2.575091086564551546e-02
7.725273259693649086e-02
5.150182173129103091e-02
0.000000000000000000e+00
-9.656591574617012785e-03
9.656591574617062745e-02
9.012818802975924859e-02
5.793954944770240978e-02
5.793954944770240978e-02
8.690932417155355916e-02
3.862636629846827319e-02
8.690932417155355916e-02
8.369046031334786973e-02
-4.828295787308528597e-02
9.656591574617062745e-02
1.416300097610502517e-01
8.690932417155355916e-02
6.437727716411373313e-02
1.158790988954047363e-01
2.800411556638947586e-01
4.409843485741791191e-01
4.731729871562360135e-01
5.053616257382929078e-01
6.276784523501088842e-01
7.403386873873080143e-01
7.789650536857761765e-01
7.113689126634568094e-01
6.019275414844634797e-01
5.858332221934350326e-01
4.023579822757109015e-01
2.510713809400436092e-01
9.334705188796493802e-02
1.287545543282275773e-02
-3.218863858205689432e-03
-2.896977472385114938e-02
-1.287545543282270222e-02
-6.437727716411378864e-03
0.000000000000000000e+00
-1.609431929102839165e-02
-4.828295787308528597e-02
-3.218863858205683881e-02
3.862636629846827319e-02
-1.062225073207876402e-01
-7.017123210888398521e-01
-9.914100683273514569e-01
-6.083652692008747476e-01
4.184523015667392931e-01
2.320800841766299971e+00
5.217778314151418684e+00
7.300383230410497859e+00
3.952764817876583070e+00
1.242481449267395011e+00
2.092261507833696188e-01
-4.699541232980302130e-01
-5.407691281785553805e-01
-2.575091086564549325e-01
-1.738186483431070628e-01
-2.060072869251639571e-01
-3.476372966862141256e-01
-3.315429773951857895e-01
-3.347618412533914789e-01
-3.025732026713345846e-01
-3.444184328280084362e-01
-3.540750244026255045e-01
-3.701693436936539516e-01
-2.929166110967175163e-01
-2.542902447982492431e-01
-2.703845640892776903e-01
-2.800411556638947586e-01
-2.671657002310720008e-01
-2.510713809400435537e-01
-3.025732026713345846e-01
-2.832600195221004480e-01
-3.025732026713345846e-01
-3.830447991264767094e-01
-4.055768461339165354e-01
-4.055768461339165354e-01
-3.894825268428880882e-01
-4.699541232980303240e-01
-4.635163955816189452e-01
-4.957050341636758395e-01
-4.635163955816189452e-01
-3.830447991264768204e-01
-2.542902447982492431e-01
-1.609431929102843328e-01
0.000000000000000000e+00
0.000000000000000000e+00
0.000000000000000000e+00
0.000000000000000000e+00
4.184523015667393486e-02
-1.931318314923410884e-02
1.609431929102844716e-02
3.218863858205689432e-03
9.656591574617068297e-03
-1.609431929102844716e-02
5.472068558949669259e-02
3.218863858205686657e-02
-3.218863858205689432e-03
-2.896977472385120489e-02
1.609431929102841941e-02
6.759614102231939481e-02
5.472068558949669259e-02
4.828295787308531373e-02
2.896977472385117713e-02
9.656591574617040541e-03
4.506409401487962429e-02
-9.656591574617068297e-03
4.184523015667393486e-02
3.540750244026255600e-02
9.656591574617040541e-03
-4.184523015667393486e-02
0.000000000000000000e+00
5.150182173129100316e-02
8.047159645514215254e-02
-1.609431929102844716e-02
3.862636629846824543e-02
3.540750244026255600e-02
5.472068558949669259e-02
1.480677374774615751e-01
8.690932417155353140e-02
2.896977472385117713e-02
5.472068558949669259e-02
4.506409401487962429e-02
4.506409401487962429e-02
4.506409401487962429e-02
2.896977472385117713e-02
5.150182173129100316e-02
1.448488736192558857e-01
2.993543388131288951e-01
3.540750244026255045e-01
3.540750244026255045e-01
4.248900292831506720e-01
6.019275414844633687e-01
6.695236825067828468e-01
6.920557295142226728e-01
6.148029969172861264e-01
5.600823113277895171e-01
5.053616257382927968e-01
3.540750244026255045e-01
1.448488736192558857e-01
1.287545543282272997e-02
-5.472068558949669259e-02
-1.673809206266957395e-01
-1.834752399177241589e-01
-1.641620567684900500e-01
-2.478525170818378920e-01
-2.092261507833696466e-01
-1.126602350371990330e-01
-9.656591574617059970e-02
-1.223168266118161013e-01
-1.094413711789933574e-01
-1.094413711789933574e-01
-5.214559450293212439e-01
-1.055787345491465246e+00
-9.431271104542663375e-01
3.862636629846824543e-02
1.422737825326913619e+00
3.685599117645511402e+00
6.926995022858638329e+00
5.249966952733475800e+00
2.092261507833696577e+00
6.083652692008747476e-01
-2.832600195221004480e-01
-7.081500488052511200e-01
-4.152334377085336037e-01
-3.347618412533914234e-01
-3.991391184175051565e-01
-3.605127521190369388e-01
-4.892673064472644051e-01
-5.278936727457326228e-01
-5.182370811711155545e-01
-5.278936727457326228e-01
-4.860484425890587157e-01
-4.184523015667392931e-01
-4.442032124323847531e-01
-5.021427618800872184e-01
-5.182370811711155545e-01
-4.699541232980302685e-01
-4.924861703054700945e-01
-4.699541232980302685e-01
-4.699541232980302685e-01
-5.826143583352293431e-01
-6.405539077829317529e-01
-5.536445836113781382e-01
-6.212407246336976163e-01
-7.081500488052511200e-01
-7.145877765216624988e-01
-7.371198235291023249e-01
-7.210255042380738777e-01
-6.759614102231943367e-01
-6.759614102231943367e-01
-6.276784523501089952e-01
-5.407691281785553805e-01
-3.991391184175051565e-01
-3.283241135369800445e-01
-1.319734181864331557e-01
0.000000000000000000e+00
0.000000000000000000e+00
8.369046031334786973e-02
6.759614102231945032e-02
1.609431929102844716e-02
-2.253204700743979827e-02
-6.437727716411378864e-03
1.609431929102844716e-02
6.437727716411376089e-02
6.759614102231945032e-02
9.656591574617068297e-03
6.437727716411378864e-03
6.437727716411378864e-03
6.115841330590807146e-02
2.896977472385117713e-02
5.150182173129100316e-02
9.334705188796491027e-02
1.287545543282275773e-02
-6.437727716411378864e-03
1.287545543282275773e-02
2.575091086564548770e-02
0.000000000000000000e+00
-3.862636629846824543e-02
-4.506409401487962429e-02
-7.081500488052511200e-02
6.437727716411378864e-03
-1.931318314923410884e-02
-8.690932417155354528e-02
0.000000000000000000e+00
3.218863858205686657e-02
-4.506409401487962429e-02
-4.506409401487962429e-02
-3.862636629846824543e-02
-4.184523015667393486e-02
-3.540750244026255600e-02
-2.575091086564548770e-02
6.437727716411378864e-03
1.609431929102843328e-01
6.437727716411378864e-03
6.437727716411378864e-03
2.575091086564548770e-02
9.656591574617068297e-03
-6.437727716411378864e-03
-4.184523015667393486e-02
-3.540750244026255600e-02
1.738186483431070906e-01
2.124450146415753082e-01
2.864788833803061374e-01
3.218863858205686101e-01
4.313277569995620508e-01
4.216711654249449825e-01
6.180218607754918159e-01
5.407691281785553805e-01
4.667352594398245236e-01
4.120145738503279143e-01
3.251052496787742996e-01
1.802563760595184417e-01
4.184523015667393486e-02
-1.062225073207876680e-01
-2.478525170818378642e-01
-2.381959255072208237e-01
-2.156638784997810254e-01
-2.092261507833696466e-01
-2.671657002310720008e-01
-1.577243290520786712e-01
-1.609431929102843606e-01
-9.978477960437628913e-02
-2.575091086564549464e-02
-2.896977472385118407e-02
-2.027884230669582677e-01
-7.628707343947478403e-01
-1.094413711789933519e+00
-7.178066403798681883e-01
2.124450146415753360e-01
1.760718530438510676e+00
5.153401036987304451e+00
7.055749577186865018e+00
4.451688715898464821e+00
1.554711243513346774e+00
6.115841330590805064e-02
-5.343314004621441127e-01
-4.184523015667392931e-01
-2.446336532236321748e-01
-2.607279725146606220e-01
-3.218863858205686657e-01
-3.572938882608312494e-01
-4.087957099921222248e-01
-3.959202545592994671e-01
-4.055768461339165354e-01
-4.152334377085336037e-01
-3.991391184175051565e-01
-3.637316159772426283e-01
-4.087957099921222248e-01
-3.701693436936540071e-01
-3.540750244026255600e-01
-3.637316159772426283e-01
-3.669504798354483177e-01
-3.057920665295402185e-01
-3.669504798354483177e-01
-4.442032124323848086e-01
-4.281088931413563614e-01
-4.313277569995620508e-01
-5.150182173129099761e-01
-5.407691281785554915e-01
-4.924861703054700945e-01
-4.763918510144416474e-01
-4.570786678652075108e-01
-5.053616257382929078e-01
-5.021427618800872184e-01
-4.152334377085336037e-01
-3.057920665295402185e-01
-2.253204700743980937e-01
-1.416300097610502240e-01
-5.150182173129099622e-02
0.000000000000000000e+00
0.000000000000000000e+00
7.081500488052509812e-02
1.287545543282274385e-02
1.931318314923412272e-02
6.437727716411373313e-02
4.184523015667394874e-02
-2.253204700743979827e-02
-1.609431929102843328e-02
4.184523015667392098e-02
-1.931318314923412272e-02
2.575091086564550158e-02
7.725273259693647698e-02
-9.656591574617068297e-03
-1.609431929102843328e-02
5.150182173129098928e-02
6.437727716411374701e-02
9.656591574617054419e-03
9.656591574617054419e-03
7.081500488052509812e-02
4.506409401487961042e-02
3.540750244026254212e-02
3.218863858205688044e-02
-3.218863858205689432e-03
-1.287545543282274385e-02
0.000000000000000000e+00
-4.184523015667393486e-02
-1.931318314923412272e-02
9.656591574617054419e-03
4.184523015667392098e-02
2.575091086564550158e-02
5.150182173129098928e-02
4.828295787308529985e-02
4.184523015667392098e-02
4.828295787308529985e-02
9.334705188796492414e-02
2.253204700743981215e-02
5.793954944770236815e-02
5.150182173129098928e-02
6.437727716411364987e-03
-9.656591574617068297e-03
6.437727716411374701e-02
1.287545543282274385e-02
6.437727716411364987e-03
5.472068558949667871e-02
4.184523015667392098e-02
-6.437727716411378864e-03
1.931318314923412272e-02
2.478525170818378642e-01
4.087957099921221693e-01
3.991391184175052120e-01
3.991391184175052120e-01
5.053616257382929078e-01
6.598670909321658895e-01
6.695236825067829578e-01
6.051464053426691692e-01
4.860484425890587157e-01
4.538598040070018214e-01
2.639468363728663114e-01
1.158790988954047224e-01
0.000000000000000000e+00
-1.062225073207876680e-01
-1.609431929102843606e-01
-1.802563760595184694e-01
-1.834752399177241311e-01
-2.832600195221004480e-01
-2.639468363728663114e-01
-9.978477960437628913e-02
-6.759614102231942256e-02
-1.480677374774616029e-01
-7.403386873873080143e-02
-1.931318314923411994e-01
-3.444184328280085472e-01
-1.036474162342231331e+00
-1.110508031080962077e+00
-5.954898137680519898e-01
6.727425463649885362e-01
3.080452712302842233e+00
7.178066403798681883e+00
7.178066403798681883e+00
2.929166110967174941e+00
4.635163955816188897e-01
-3.476372966862141811e-01
-3.830447991264767649e-01
-1.480677374774616029e-01
-1.673809206266957395e-01
-2.156638784997810254e-01
-2.575091086564549325e-01
-3.218863858205687212e-01
-3.733882075518596966e-01
-3.347618412533914234e-01
-3.927013907010938332e-01
-3.894825268428881437e-01
-1.963506953505468888e-01
-3.347618412533914234e-01
-3.798259352682710754e-01
-3.154486581041573423e-01
-3.411995689698028023e-01
-3.605127521190369388e-01
-3.379807051115971128e-01
-3.283241135369800445e-01
-4.281088931413563059e-01
-4.184523015667392376e-01
-3.991391184175052120e-01
-4.602975317234132002e-01
-4.828295787308530262e-01
-4.442032124323847531e-01
-5.214559450293212439e-01
-5.085804895964984862e-01
-4.602975317234132002e-01
-4.377654847159733742e-01
-4.281088931413563059e-01
-3.701693436936540071e-01
-2.607279725146606220e-01
-1.641620567684899945e-01
-8.690932417155355916e-02
-4.506409401487959654e-02
3.218863858205689432e-03
1.287545543282274940e-01
1.416300097610502240e-01
5.793954944770238202e-02
7.725273259693650474e-02
1.223168266118161152e-01
3.540750244026255600e-02
3.218863858205689432e-02
4.828295787308531373e-02
4.506409401487962429e-02
2.575091086564551546e-02
1.287545543282275773e-02
5.793954944770238202e-02
5.472068558949669259e-02
7.081500488052512587e-02
9.656591574617061358e-02
3.218863858205689432e-03
4.828295787308531373e-02
8.690932417155355916e-02
5.472068558949669259e-02
4.184523015667393486e-02
3.218863858205689432e-02
1.931318314923413659e-02
3.862636629846824543e-02
3.218863858205689432e-02
7.081500488052512587e-02
3.218863858205689432e-03
-3.218863858205661677e-03
3.862636629846824543e-02
-9.656591574617040541e-03
-3.862636629846821767e-02
3.218863858205689432e-02
0.000000000000000000e+00
6.437727716411378864e-03
1.931318314923413659e-02
1.931318314923413659e-02
-3.218863858205661677e-03
4.506409401487962429e-02
4.184523015667393486e-02
-5.472068558949666484e-02
-6.437727716411351109e-03
-3.218863858205661677e-03
-7.403386873873080143e-02
-7.403386873873080143e-02
-2.253204700743979827e-02
-1.609431929102841941e-02
1.609431929102844716e-02
6.437727716411378864e-03
-1.287545543282272997e-02
-1.609431929102841941e-02
-6.437727716411351109e-03
-5.150182173129097540e-02
1.384111459028445346e-01
3.025732026713345846e-01
3.540750244026255600e-01
2.768222918056890691e-01
4.377654847159734297e-01
6.630859547903714679e-01
5.922709499098464114e-01
5.214559450293212439e-01
4.731729871562360135e-01
3.798259352682710199e-01
2.253204700743980937e-01
1.545054651938729817e-01
0.000000000000000000e+00
-1.480677374774616029e-01
-1.931318314923412549e-01
-1.319734181864331557e-01
-1.448488736192559134e-01
-1.577243290520786712e-01
-1.931318314923412549e-01
-2.156638784997810254e-01
-2.607279725146606775e-01
-1.126602350371990746e-01
-1.416300097610502240e-01
-1.963506953505469443e-01
-6.791802740813999151e-01
-1.284326679424069084e+00
-1.213511674543543917e+00
-4.216711654249450381e-01
1.306858726431508799e+00
3.627659568197808770e+00
7.300383230410497859e+00
5.587947657845072413e+00
1.625526248393871942e+00
2.478525170818378642e-01
-5.117993534547042866e-01
-6.051464053426691692e-01
-2.381959255072208514e-01
-1.480677374774616029e-01
-3.411995689698028023e-01
-3.766070714100653860e-01
-4.248900292831507275e-01
-4.120145738503279698e-01
-4.281088931413564169e-01
-3.798259352682710754e-01
-3.186675219623629762e-01
-3.508561605444198706e-01
-3.894825268428881437e-01
-3.733882075518596966e-01
-3.508561605444198706e-01
-3.347618412533914234e-01
-2.639468363728663669e-01
-3.122297942459515974e-01
-4.023579822757109015e-01
-3.347618412533914234e-01
-3.090109303877459079e-01
-3.701693436936540071e-01
-4.281088931413564169e-01
-5.117993534547042866e-01
-4.281088931413564169e-01
-3.701693436936540071e-01
-3.862636629846824543e-01
-3.894825268428881437e-01
-3.572938882608312494e-01
-2.896977472385118824e-01
-2.188827423579867149e-01
-1.963506953505469443e-01
0.000000000000000000e+00
0.000000000000000000e+00
0.000000000000000000e+00
0.000000000000000000e+00
0.000000000000000000e+00
0.000000000000000000e+00
0.000000000000000000e+00
7.403386873873080143e-02
-6.437727716411364987e-03
-2.896977472385119101e-02
4.506409401487961042e-02
1.931318314923412272e-02
0.000000000000000000e+00
0.000000000000000000e+00
6.437727716411378864e-03
-2.896977472385117713e-02
-6.437727716411378864e-03
2.896977472385117713e-02
-2.253204700743981215e-02
-3.540750244026256988e-02
-9.656591574617040541e-03
0.000000000000000000e+00
3.218863858205689432e-03
8.369046031334786973e-02
4.184523015667393486e-02
-3.218863858205689432e-03
-3.540750244026255600e-02
-6.437727716411378864e-03
4.184523015667393486e-02
7.403386873873080143e-02
4.506409401487962429e-02
1.287545543282275773e-02
6.437727716411373313e-02
1.126602350371990191e-01
6.115841330590804370e-02
9.656591574617062745e-02
8.047159645514218029e-02
6.115841330590804370e-02
7.725273259693649086e-02
1.319734181864331557e-01
1.287545543282274663e-01
7.725273259693649086e-02
1.319734181864331557e-01
7.403386873873080143e-02
4.184523015667393486e-02
1.030036434625820063e-01
1.255356904700217768e-01
6.437727716411373313e-02
8.690932417155355916e-02
1.577243290520786712e-01
1.995695592087525783e-01
3.057920665295402740e-01
4.409843485741791191e-01
4.055768461339165354e-01
4.570786678652075663e-01
7.081500488052511200e-01
7.242443680962795671e-01
6.148029969172862375e-01
6.180218607754919269e-01
5.407691281785553805e-01
4.892673064472644606e-01
3.540750244026255045e-01
1.738186483431071183e-01
4.184523015667393486e-02
5.472068558949666484e-02
6.759614102231942256e-02
-6.115841330590804370e-02
-6.115841330590804370e-02
-6.437727716411378864e-03
-9.978477960437628913e-02
-1.384111459028445346e-01
-5.472068558949667871e-02
-2.253204700743979827e-02
-9.334705188796492414e-02
-2.285393339326037832e-01
-5.858332221934350326e-01
-1.075100528640699382e+00
-8.433423308498899651e-01
2.607279725146606220e-01
1.638401703826694700e+00
4.084738236063016892e+00
6.798240468530410752e+00
4.590099861801309800e+00
1.802563760595184528e+00
5.375502643203496911e-01
-3.605127521190369388e-01
-7.693084621111592192e-01
-4.377654847159734297e-01
-3.025732026713345846e-01
-4.087957099921222248e-01
-4.409843485741791191e-01
-4.216711654249449825e-01
-4.506409401487961874e-01
-4.828295787308530818e-01
-4.377654847159734297e-01
-4.506409401487961874e-01
-4.506409401487961874e-01
-4.570786678652075663e-01
-4.409843485741791191e-01
-4.538598040070018769e-01
-4.248900292831506720e-01
-4.184523015667392931e-01
-4.731729871562360135e-01
-5.053616257382927968e-01
-5.085804895964984862e-01
-5.600823113277895171e-01
-6.437727716411373313e-01
-6.534293632157543996e-01
-6.373350439247259525e-01
-6.984934572306340517e-01
-7.017123210888397411e-01
-7.049311849470454305e-01
-7.113689126634568094e-01
-6.695236825067828468e-01
-6.308973162083146846e-01
-5.633011751859952065e-01
-4.248900292831506720e-01
-2.864788833803061374e-01
-1.512866013356672923e-01
-4.828295787308531373e-02
6.437727716411378864e-03
5.472068558949666484e-02
9.656591574617062745e-02
1.673809206266957395e-01
1.448488736192559134e-01
1.384111459028445346e-01
1.866941037759298205e-01
1.190979627536103980e-01
4.828295787308528597e-02
7.725273259693649086e-02
1.384111459028445346e-01
9.656591574617062745e-02
9.334705188796493802e-02
1.351922820446388451e-01
1.094413711789933852e-01
1.062225073207876958e-01
1.351922820446388451e-01
4.828295787308528597e-02
6.437727716411378864e-03
3.218863858205689432e-02
6.437727716411378864e-03
-1.609431929102841941e-02
2.896977472385120489e-02
1.931318314923413659e-02
-3.862636629846824543e-02
-2.253204700743979827e-02
0.000000000000000000e+00
2.575091086564551546e-02
3.540750244026258375e-02
1.287545543282275773e-02
-9.656591574617040541e-03
-3.218863858205686657e-02
1.931318314923413659e-02
-1.609431929102841941e-02
-6.115841330590804370e-02
-6.759614102231942256e-02
3.218863858205689432e-02
0.000000000000000000e+00
-3.540750244026255600e-02
1.931318314923413659e-02
3.218863858205689432e-03
-6.437727716411378864e-03
6.437727716411378864e-03
-3.540750244026255600e-02
-6.437727716411373313e-02
-6.115841330590804370e-02
-6.759614102231942256e-02
-9.656591574617040541e-03
2.285393339326037832e-01
2.703845640892776903e-01
2.124450146415753360e-01
3.476372966862141811e-01
4.570786678652074553e-01
5.021427618800871073e-01
4.345466208577677403e-01
4.345466208577677403e-01
3.218863858205689432e-03
1.545054651938729817e-01
9.978477960437631689e-02
0.000000000000000000e+00
-1.255356904700217768e-01
-2.092261507833696466e-01
-2.542902447982492431e-01
-2.961354749549232057e-01
-2.703845640892776903e-01
-2.800411556638947586e-01
-2.092261507833696466e-01
-1.480677374774616029e-01
-1.062225073207876541e-01
-1.190979627536104257e-01
-7.081500488052511200e-02
-1.577243290520786712e-01
-7.306820958126909460e-01
-1.094413711789933519e+00
-6.212407246336975053e-01
4.023579822757108460e-01
1.992476728229320093e+00
4.899110792189055097e+00
7.190941859231504196e+00
3.692036845361923003e+00
1.271451223991246327e+00
9.656591574617061358e-02
-6.856180017978112939e-01
-5.278936727457326228e-01
-2.768222918056890691e-01
-3.315429773951857340e-01
-4.087957099921222803e-01
-4.763918510144416474e-01
-4.796107148726473368e-01
-5.246748088875270444e-01
-4.763918510144416474e-01
-4.796107148726473368e-01
-4.989238980218814734e-01
-4.828295787308530262e-01
-4.796107148726473368e-01
-4.731729871562359580e-01
-4.989238980218814734e-01
-4.345466208577676848e-01
-4.796107148726473368e-01
-5.472068558949667594e-01
-5.246748088875270444e-01
-5.021427618800871073e-01
-5.311125366039384232e-01
-5.343314004621440017e-01
-6.341161800665202630e-01
-6.695236825067829578e-01
-6.341161800665202630e-01
-6.019275414844633687e-01
-6.148029969172861264e-01
-5.922709499098464114e-01
-5.600823113277895171e-01
-5.890520860516406110e-01
-5.021427618800871073e-01
-3.411995689698028023e-01
-2.736034279474833797e-01
-2.027884230669582677e-01
-1.094413711789933297e-01
-1.609431929102841941e-02
3.540750244026255600e-02
3.218863858205686657e-02
6.115841330590805758e-02
4.828295787308531373e-02
1.609431929102841941e-02
9.656591574617040541e-03
6.437727716411378864e-03
-1.931318314923410884e-02
6.437727716411378864e-03
-6.437727716411378864e-03
-9.656591574617040541e-03
4.828295787308531373e-02
1.931318314923413659e-02
-3.540750244026255600e-02
6.437727716411378864e-03
2.253204700743982603e-02
-6.437727716411373313e-02
-2.575091086564548770e-02
2.253204700743982603e-02
2.253204700743982603e-02
-2.253204700743979827e-02
0.000000000000000000e+00
-2.575091086564548770e-02
0.000000000000000000e+00
-6.437727716411378864e-03
0.000000000000000000e+00
0.000000000000000000e+00
6.437727716411378864e-03
4.828295787308531373e-02
-9.656591574617040541e-03
-1.287545543282272997e-02
4.184523015667393486e-02
6.115841330590805758e-02
8.047159645514218029e-02
1.158790988954047363e-01
6.437727716411374701e-02
1.705997844849014011e-01
8.690932417155355916e-02
3.862636629846824543e-02
-7.081500488052511200e-02
7.725273259693649086e-02
1.094413711789933574e-01
7.725273259693649086e-02
-8.690932417155353140e-02
8.690932417155355916e-02
9.334705188796492414e-02
1.158790988954047363e-01
6.759614102231943644e-02
1.287545543282275773e-02
2.092261507833696466e-01
3.701693436936540071e-01
4.281088931413563614e-01
4.120145738503279143e-01
5.568634474695838277e-01
6.759614102231942256e-01
6.888368656560169834e-01
6.952745933724283622e-01
6.405539077829316419e-01
5.117993534547041756e-01
3.959202545592994671e-01
2.446336532236322303e-01
8.690932417155355916e-02
-4.828295787308528597e-02
-8.690932417155353140e-02
-1.030036434625819786e-01
-9.978477960437628913e-02
-1.416300097610501962e-01
-1.931318314923412272e-01
-9.334705188796491027e-02
-6.759614102231945032e-02
-4.828295787308531373e-02
-5.150182173129100316e-02
-5.793954944770238202e-02
-2.832600195221004480e-01
-9.592214297452947847e-01
-1.265013496274834948e+00
-8.948441525811809960e-01
1.223168266118160874e-01
1.966725817363674578e+00
5.494600605957106865e+00
7.210255042380738111e+00
3.579376610324723984e+00
9.849723406109401891e-01
-1.512866013356672645e-01
-4.602975317234132557e-01
-1.319734181864331835e-01
-5.150182173129100316e-02
-1.512866013356672645e-01
-2.478525170818378920e-01
-2.349770616490151343e-01
-2.607279725146606220e-01
-3.057920665295402740e-01
-3.057920665295402740e-01
-2.639468363728663114e-01
-2.993543388131288951e-01
-2.510713809400435537e-01
-2.478525170818378920e-01
-2.575091086564549325e-01
-3.637316159772426838e-01
-2.478525170818378920e-01
-2.510713809400435537e-01
-1.931318314923412272e-01
-2.124450146415753637e-01
-2.510713809400435537e-01
-2.478525170818378920e-01
-2.510713809400435537e-01
-2.607279725146606220e-01
-3.218863858205687212e-01
-3.637316159772426838e-01
-3.669504798354483732e-01
-3.347618412533914789e-01
-2.703845640892776903e-01
-2.221016062161923765e-01
-1.931318314923412272e-01
-1.545054651938729540e-01
-4.184523015667393486e-02
0.000000000000000000e+00
1.609431929102844022e-02
5.793954944770236815e-02
1.287545543282274663e-01
1.094413711789933574e-01
2.221016062161924043e-01
2.124450146415753360e-01
1.223168266118161152e-01
1.223168266118161152e-01
1.255356904700217768e-01
1.448488736192559134e-01
1.770375122013127800e-01
1.802563760595184694e-01
1.190979627536104257e-01
1.094413711789933574e-01
1.094413711789933574e-01
9.978477960437628913e-02
9.012818802975923471e-02
1.190979627536104257e-01
1.094413711789933574e-01
7.403386873873080143e-02
1.062225073207876680e-01
5.793954944770236815e-02
-9.656591574617061358e-03
7.403386873873080143e-02
8.690932417155354528e-02
3.218863858205689432e-03
3.218863858205689432e-03
6.115841330590805064e-02
4.184523015667393486e-02
5.793954944770236815e-02
4.184523015667393486e-02
0.000000000000000000e+00
2.896977472385118407e-02
1.931318314923412272e-02
-3.862636629846823849e-02
-2.896977472385118407e-02
0.000000000000000000e+00
4.184523015667393486e-02
-8.690932417155353140e-02
-9.334705188796491027e-02
-3.218863858205682493e-03
-9.656591574617061358e-03
-6.759614102231942256e-02
-6.759614102231942256e-02
-4.506409401487961736e-02
-7.725273259693646311e-02
-5.793954944770236121e-02
-8.690932417155353140e-02
-7.403386873873078755e-02
-6.759614102231940869e-02
8.369046031334786973e-02
2.188827423579867149e-01
2.929166110967175163e-01
2.800411556638947586e-01
3.637316159772426283e-01
5.117993534547042866e-01
6.019275414844634797e-01
4.667352594398245791e-01
3.991391184175051565e-01
3.283241135369800445e-01
2.156638784997810254e-01
9.334705188796492414e-02
1.609431929102843328e-02
-1.448488736192559134e-01
-2.671657002310720008e-01
-2.800411556638947586e-01
-2.253204700743980660e-01
-2.092261507833696743e-01
-1.255356904700218046e-01
-2.832600195221004480e-01
-1.512866013356672923e-01
-1.223168266118160874e-01
-9.334705188796488251e-02
1.448488736192559134e-01
-3.540750244026255045e-01
-1.068662800924288003e+00
-1.239262585409189432e+00
-7.982782368350103130e-01
4.409843485741791191e-01
2.542902447982492653e+00
5.896958588232818599e+00
7.223130497813561313e+00
3.173799764190807338e+00
7.113689126634568094e-01
-2.478525170818378642e-01
-5.568634474695838277e-01
-3.927013907010937777e-01
-2.993543388131288951e-01
-2.896977472385118269e-01
-3.540750244026255045e-01
-5.053616257382927968e-01
-4.602975317234132557e-01
-4.345466208577677403e-01
-4.281088931413563614e-01
-4.442032124323848086e-01
-4.377654847159734297e-01
-3.959202545592994671e-01
-4.023579822757108460e-01
-3.605127521190368833e-01
-4.023579822757108460e-01
-4.023579822757108460e-01
-3.733882075518596411e-01
-3.927013907010937777e-01
-4.120145738503279143e-01
-4.055768461339165354e-01
-3.959202545592994671e-01
-4.506409401487961874e-01
-5.214559450293212439e-01
-4.763918510144415919e-01
-5.117993534547041756e-01
-5.214559450293212439e-01
-5.246748088875269334e-01
-5.375502643203496911e-01
-4.860484425890586602e-01
-3.508561605444198150e-01
-2.993543388131288951e-01
-3.572938882608311939e-01
-1.416300097610502240e-01
-5.793954944770235427e-02
0.000000000000000000e+00
0.000000000000000000e+00
1.931318314923411925e-02
2.575091086564549464e-02
-3.218863858205682493e-03
2.896977472385118407e-02
3.218863858205686657e-02
5.472068558949667871e-02
3.862636629846823849e-02
-1.287545543282275079e-02
-1.287545543282275079e-02
2.575091086564549464e-02
3.540750244026255600e-02
-6.437727716411371925e-03
2.575091086564549464e-02
9.656591574617059970e-02
3.540750244026255600e-02
4.828295787308529985e-02
5.793954944770236121e-02
-1.609431929102843328e-02
-5.793954944770236121e-02
5.150182173129098928e-02
9.334705188796491027e-02
0.000000000000000000e+00
-2.896977472385118407e-02
3.218863858205686657e-02
3.540750244026255600e-02
6.759614102231942256e-02
6.437727716411371925e-03
6.437727716411371925e-03
3.540750244026255600e-02
1.287545543282274663e-01
4.828295787308529985e-02
3.218863858205686657e-02
1.062225073207876680e-01
7.403386873873080143e-02
7.725273259693649086e-02
6.437727716411371925e-03
0.000000000000000000e+00
3.218863858205686657e-02
7.403386873873080143e-02
1.030036434625819786e-01
3.540750244026255600e-02
8.047159645514218029e-02
1.963506953505468888e-01
3.476372966862141811e-01
3.251052496787743551e-01
4.409843485741791191e-01
6.019275414844634797e-01
6.308973162083146846e-01
6.180218607754919269e-01
5.922709499098464114e-01
4.989238980218814734e-01
3.894825268428880882e-01
2.414147893654265131e-01
1.545054651938729540e-01
0.000000000000000000e+00
-6.437727716411373313e-02
-1.384111459028445346e-01
-9.978477960437628913e-02
-7.403386873873080143e-02
-1.512866013356672923e-01
-1.834752399177241589e-01
-1.062225073207876541e-01
-9.978477960437628913e-02
-1.158790988954047363e-01
-4.506409401487962429e-02
-8.047159645514218029e-02
-4.989238980218814179e-01
-9.785346128945289212e-01
-9.334705188796492692e-01
-1.866941037759298205e-01
1.351922820446388451e+00
3.495686150011375837e+00
7.110470262776361849e+00
5.893739724374612798e+00
2.063291733109845261e+00
6.727425463649885362e-01
-1.673809206266957395e-01
-6.663048186485771573e-01
-4.763918510144417029e-01
-3.508561605444198706e-01
-3.669504798354483177e-01
-3.218863858205686657e-01
-4.055768461339165354e-01
-4.152334377085336037e-01
-4.055768461339165354e-01
-4.216711654249449825e-01
-4.055768461339165354e-01
-3.444184328280084917e-01
-3.540750244026255600e-01
-3.637316159772426283e-01
-3.830447991264767649e-01
-4.409843485741791191e-01
-4.377654847159734297e-01
-3.605127521190369388e-01
-3.830447991264767649e-01
-4.796107148726473923e-01
-5.246748088875269334e-01
-5.085804895964984862e-01
-5.600823113277895171e-01
-5.665200390442008960e-01
-6.276784523501089952e-01
-6.856180017978112939e-01
-6.566482270739600891e-01
-5.633011751859952065e-01
-5.568634474695838277e-01
-5.439879920367610699e-01
-4.409843485741791191e-01
-3.444184328280084917e-01
-2.124450146415753360e-01
-1.030036434625819786e-01
0.000000000000000000e+00
0.000000000000000000e+00
0.000000000000000000e+00
9.012818802975923471e-02
6.437727716411374701e-02
7.081500488052512587e-02
8.047159645514216642e-02
8.369046031334785585e-02
5.793954944770236815e-02
7.403386873873078755e-02
2.575091086564550158e-02
1.287545543282274663e-01
6.115841330590805758e-02
1.319734181864331557e-01
8.047159645514216642e-02
8.047159645514216642e-02
7.725273259693647698e-02
6.115841330590805758e-02
1.931318314923412272e-02
9.012818802975923471e-02
7.403386873873078755e-02
1.287545543282274385e-02
0.000000000000000000e+00
-1.287545543282274385e-02
-3.862636629846823849e-02
-2.253204700743980521e-02
-3.218863858205689432e-03
0.000000000000000000e+00
1.609431929102843328e-02
3.540750244026255600e-02
-3.218863858205689432e-03
-3.218863858205689432e-03
0.000000000000000000e+00
-2.253204700743980521e-02
-1.609431929102843328e-02
4.506409401487961042e-02
4.506409401487961042e-02
-2.575091086564549464e-02
-2.253204700743980521e-02
3.540750244026255600e-02
1.931318314923412272e-02
1.609431929102843328e-02
2.253204700743981215e-02
-5.150182173129098928e-02
-3.862636629846823849e-02
0.000000000000000000e+00
-9.656591574617054419e-03
8.369046031334785585e-02
2.800411556638947586e-01
3.315429773951857895e-01
2.896977472385118269e-01
4.345466208577677958e-01
5.439879920367610699e-01
4.635163955816188897e-01
5.021427618800871073e-01
4.989238980218814734e-01
3.154486581041573423e-01
1.705997844849014011e-01
7.725273259693649086e-02
0.000000000000000000e+00
-5.793954944770236815e-02
-2.575091086564550158e-02
-1.545054651938729817e-01
-1.802563760595184694e-01
-1.319734181864331557e-01
-1.416300097610502240e-01
-1.577243290520786712e-01
-1.030036434625819924e-01
-3.862636629846824543e-02
-4.828295787308528597e-02
-3.862636629846824543e-02
-1.931318314923412272e-01
-9.399082465960605370e-01
-1.120164622655579034e+00
-5.858332221934349215e-01
4.763918510144417029e-01
2.497838353967613223e+00
6.128716786023627350e+00
7.158753220649447080e+00
3.215644994347481411e+00
8.690932417155354806e-01
-9.012818802975922083e-02
-6.695236825067828468e-01
-4.796107148726472813e-01
-2.607279725146606220e-01
-3.057920665295402740e-01
-4.474220762905903870e-01
-4.055768461339165354e-01
-4.377654847159734297e-01
-4.442032124323848086e-01
-3.927013907010937777e-01
-3.894825268428880882e-01
-4.023579822757108460e-01
-4.023579822757108460e-01
-3.508561605444198150e-01
-3.894825268428880882e-01
-4.087957099921222248e-01
-3.798259352682710199e-01
-3.991391184175051565e-01
-4.087957099921222248e-01
-4.281088931413563614e-01
-4.763918510144415919e-01
-4.763918510144415919e-01
-4.281088931413563614e-01
-4.763918510144415919e-01
-5.536445836113781382e-01
-5.536445836113781382e-01
-5.665200390442008960e-01
-5.922709499098463004e-01
-5.150182173129098651e-01
-4.570786678652074553e-01
-4.055768461339165354e-01
-2.993543388131288951e-01
-2.124450146415753082e-01
-1.030036434625819786e-01
0.000000000000000000e+00
0.000000000000000000e+00
4.184523015667392792e-02
5.793954944770236815e-02
6.115841330590804370e-02
7.725273259693647698e-02
4.184523015667393486e-02
-3.540750244026255600e-02
0.000000000000000000e+00
-5.793954944770236121e-02
3.540750244026255600e-02
8.369046031334785585e-02
4.506409401487961042e-02
-1.287545543282274732e-02
-3.218863858205685963e-03
2.896977472385118407e-02
2.896977472385118407e-02
1.287545543282275079e-02
2.896977472385118407e-02
3.862636629846824543e-02
2.896977472385118407e-02
-3.218863858205685963e-03
0.000000000000000000e+00
4.184523015667393486e-02
9.012818802975923471e-02
6.437727716411371925e-03
-3.862636629846824543e-02
-3.218863858205685963e-03
2.896977472385118407e-02
2.896977472385118407e-02
2.896977472385118407e-02
4.506409401487961042e-02
6.437727716411371925e-03
6.115841330590805758e-02
6.437727716411373313e-02
6.437727716411371925e-03
-1.448488736192559134e-01
2.896977472385118407e-02
2.896977472385118407e-02
1.287545543282275079e-02
6.437727716411373313e-02
2.896977472385118407e-02
-9.656591574617057888e-03
-2.253204700743980521e-02
-1.287545543282274732e-02
-2.253204700743980521e-02
9.656591574617061358e-03
1.609431929102843328e-02
1.094413711789933574e-01
2.542902447982492431e-01
5.890520860516407220e-01
3.476372966862141811e-01
3.862636629846823988e-01
6.469916354993430208e-01
6.469916354993430208e-01
5.987086776262577903e-01
5.214559450293212439e-01
4.667352594398245791e-01
3.733882075518596966e-01
2.607279725146606220e-01
9.978477960437630301e-02
0.000000000000000000e+00
-4.184523015667392098e-02
-1.094413711789933435e-01
-1.416300097610502240e-01
-1.287545543282274663e-01
-7.081500488052509812e-02
-1.223168266118161013e-01
-1.126602350371990469e-01
-5.472068558949669259e-02
-5.472068558949669259e-02
-6.115841330590804370e-02
-1.094413711789933574e-01
-6.920557295142226728e-01
-1.216730538401749717e+00
-1.065443937066082425e+00
-3.572938882608311939e-01
1.413081233752296662e+00
4.174866424092775752e+00
7.149096629074830567e+00
5.375502643203497577e+00
1.471020783199998849e+00
9.656591574617059970e-02
-5.439879920367610699e-01
-4.184523015667392931e-01
-6.115841330590804370e-02
-1.158790988954047363e-01
-2.736034279474833797e-01
-3.251052496787744106e-01
-3.347618412533914789e-01
-3.991391184175051565e-01
-3.701693436936539516e-01
-2.993543388131288951e-01
-3.637316159772425728e-01
-3.862636629846823988e-01
-3.476372966862142366e-01
-3.476372966862142366e-01
-3.154486581041573423e-01
-2.639468363728663114e-01
-3.154486581041573423e-01
-3.701693436936539516e-01
-3.057920665295402740e-01
-2.864788833803061374e-01
-3.122297942459516529e-01
-3.862636629846823988e-01
-3.444184328280085472e-01
-3.959202545592994671e-01
-4.087957099921222248e-01
-4.184523015667392931e-01
-4.248900292831506720e-01
-3.830447991264767094e-01
-3.154486581041573423e-01
-2.832600195221004480e-01
-2.253204700743980660e-01
-1.094413711789933574e-01
-2.253204700743979827e-02
0.000000000000000000e+00
3.218863858205686657e-02
8.369046031334786973e-02
9.012818802975923471e-02
1.158790988954047224e-01
1.351922820446388451e-01
1.351922820446388451e-01
1.480677374774616029e-01
1.577243290520786712e-01
8.047159645514218029e-02
9.012818802975923471e-02
1.512866013356672923e-01
1.448488736192559134e-01
3.862636629846824543e-02
8.690932417155354528e-02
1.094413711789933574e-01
1.030036434625819786e-01
1.030036434625819786e-01
1.158790988954047224e-01
4.506409401487961736e-02
-3.218863858205682493e-03
7.081500488052511200e-02
5.150182173129098928e-02
3.862636629846824543e-02
5.793954944770236815e-02
5.793954944770236815e-02
2.575091086564549464e-02
4.184523015667392792e-02
4.184523015667392792e-02
-1.931318314923412272e-02
6.437727716411378864e-03
1.030036434625819786e-01
4.184523015667392792e-02
4.506409401487961736e-02
5.150182173129098928e-02
-2.575091086564548770e-02
-2.575091086564548770e-02
2.896977472385118407e-02
4.184523015667392792e-02
0.000000000000000000e+00
-2.253204700743981215e-02
0.000000000000000000e+00
-1.609431929102843328e-02
-2.253204700743981215e-02
-9.656591574617061358e-03
-7.725273259693647698e-02
-9.012818802975922083e-02
-4.828295787308529985e-02
-6.115841330590804370e-02
-9.012818802975922083e-02
-6.437727716411371925e-03
1.094413711789933574e-01
1.866941037759298483e-01
2.124450146415753360e-01
2.381959255072208514e-01
3.862636629846824543e-01
5.761766306188179643e-01
5.600823113277895171e-01
4.538598040070018214e-01
4.731729871562359580e-01
4.248900292831506720e-01
2.221016062161924043e-01
1.931318314923410884e-02
0.000000000000000000e+00
-9.334705188796493802e-02
-1.770375122013128077e-01
-1.448488736192559134e-01
-1.834752399177241311e-01
-2.253204700743980937e-01
-2.124450146415753360e-01
-1.577243290520786712e-01
-1.545054651938729817e-01
-8.047159645514218029e-02
-6.437727716411378864e-03
-9.334705188796488251e-02
-3.508561605444198150e-01
-8.529989224245069224e-01
-1.200636219110721159e+00
-8.851875610065638167e-01
2.156638784997810254e-01
1.902348540199561011e+00
5.668419254300214760e+00
7.348666188283583089e+00
3.196331811198247053e+00
8.433423308498899651e-01
-2.961354749549232057e-01
-6.051464053426691692e-01
-4.023579822757108460e-01
-2.736034279474833797e-01
-3.766070714100653305e-01
-4.023579822757108460e-01
-3.766070714100653305e-01
-3.927013907010937777e-01
-4.570786678652075663e-01
-4.570786678652075663e-01
-4.538598040070018769e-01
-3.798259352682710199e-01
-3.605127521190368833e-01
-4.120145738503279143e-01
-4.120145738503279143e-01
-4.860484425890586602e-01
-4.216711654249449825e-01
-4.345466208577677403e-01
-4.087957099921222248e-01
-4.409843485741791191e-01
-6.180218607754919269e-01
-4.731729871562359024e-01
-4.377654847159734297e-01
-4.763918510144415919e-01
-6.695236825067829578e-01
-6.244595884919033058e-01
-5.665200390442008960e-01
-4.731729871562359024e-01
-4.731729871562359024e-01
-4.281088931413563614e-01
-3.508561605444198150e-01
-2.896977472385118269e-01
-2.060072869251639016e-01
-8.369046031334786973e-02
0.000000000000000000e+00
0.000000000000000000e+00
0.000000000000000000e+00
4.184523015667393486e-02
3.218863858205686657e-02
4.184523015667393486e-02
4.506409401487962429e-02
2.253204700743982603e-02
2.575091086564548770e-02
2.575091086564548770e-02
3.218863858205689432e-03
5.472068558949666484e-02
2.253204700743979827e-02
-4.184523015667393486e-02
-2.253204700743982603e-02
1.609431929102841941e-02
3.218863858205689432e-03
-5.472068558949666484e-02
1.609431929102844716e-02
1.609431929102844716e-02
-3.862636629846824543e-02
-7.403386873873080143e-02
-6.115841330590804370e-02
-4.506409401487962429e-02
3.218863858205689432e-03
5.150182173129100316e-02
0.000000000000000000e+00
-4.828295787308528597e-02
3.862636629846824543e-02
1.931318314923413659e-02
-1.609431929102841941e-02
4.184523015667393486e-02
3.540750244026255600e-02
6.759614102231942256e-02
8.690932417155354528e-02
8.369046031334785585e-02
5.793954944770236815e-02
3.218863858205686657e-02
4.506409401487962429e-02
9.012818802975923471e-02
3.540750244026255600e-02
3.540750244026255600e-02
6.437727716411378864e-03
-9.656591574617068297e-03
3.862636629846824543e-02
5.150182173129100316e-02
