1902
1903
1904
1904
1915
1914
1910
1904
1907
1897
1891
1891
1888
1894
1890
1891
1894
1890
1903
1895
1899
1902
1901
1908
1906
1904
1904
1895
1895
1904
1899
1918
1922
1895
1892
1907
1899
1903
1927
1919
1907
1907
1909
1910
1968
2009
2007
2003
2055
2089
2080
2074
2021
1970
1947
1910
1863
1859
1840
1841
1851
1856
1845
1840
1831
1851
1843
1841
1711
1447
1482
1723
2177
3146
4095
3731
2511
1900
1694
1735
1793
1786
1755
1729
1728
1728
1725
1729
1693
1709
1722
1693
1702
1710
1710
1710
1716
1703
1695
1690
1674
1657
1667
1706
1690
1681
1700
1693
1695
1725
1731
1748
1802
1816
1872
1820
1841
1838
1840
1824
1824
1815
1846
1859
1814
1821
1823
1815
1724
1805
1806
1808
1824
1811
1814
1824
1837
1833
1847
1843
1834
1811
1831
1839
1812
1835
1829
1814
1830
1857
1857
1847
1843
1843
1841
1840
1853
1901
1936
1931
1929
1999
1997
1983
2004
1982
1929
1904
1898
1842
1815
1819
1807
1807
1818
1830
1808
1799
1806
1802
1792
1680
1477
1531
1788
2320
2966
4095
3819
2506
2027
1773
1627
1728
1761
1722
1698
1710
1695
1679
1695
1708
1684
1685
1711
1712
1701
1698
1679
1698
1709
1696
1665
1661
1667
1652
1665
1680
1648
1648
1664
1682
1727
1776
1793
1825
1869
1867
1883
1936
1939
1940
1936
1937
1943
1942
1937
1947
1943
1936
1921
1936
1938
1936
1936
1949
1939
1947
1937
1937
1942
1955
1951
1947
1949
1939
1954
1980
1983
1968
1967
2022
2042
2021
2044
2117
2130
2113
2128
2112
2074
1995
1984
1939
1942
1934
1910
1904
1918
1908
1903
1899
1909
1919
1916
1789
1616
1635
1858
2305
2887
4082
4095
2811
2282
1968
1738
1760
1826
1823
1809
1783
1763
1767
1778
1764
1776
1811
1782
1759
1776
1770
1770
1779
1771
1758
1748
1738
1707
1696
1703
1699
1717
1738
1733
1727
1766
1799
1821
1871
1925
1963
1963
1975
1979
1987
2000
1985
1998
2006
1996
1984
1991
1983
1973
1972
1993
1985
1975
1968
1962
1959
1976
1972
1959
1953
1969
1975
1982
1993
1967
1958
1970
1954
1967
1982
2000
2032
2071
2071
2090
2134
2132
2111
2103
2089
2032
1987
1947
1911
1905
1903
1886
1872
1878
1896
1872
1881
1904
1886
1846
1680
1535
1686
2014
2481
3349
4095
3349
2419
2001
1758
1751
1805
1803
1750
1744
1762
1757
1744
1744
1757
1739
1749
1755
1747
1744
1764
1757
1770
1749
1730
1712
1714
1723
1721
1719
1718
1716
1721
1744
1738
1746
1811
1853
1862
1874
1911
1893
1920
1947
1933
1913
1949
1934
1931
1933
1922
1919
1929
1939
1920
1918
1918
1915
1929
1939
1918
1913
1926
1905
1911
1934
1933
1919
1926
1936
1927
1920
1934
1934
1926
1957
2000
2029
2035
2047
2089
2091
2109
2103
2073
2017
1966
1931
1919
1895
1875
1862
1851
1859
1863
1855
1843
1840
1872
1842
1631
1471
1551
1845
2429
3311
4095
3727
2450
1958
1751
1807
1780
1801
1792
1761
1737
1742
1724
1727
1738
1730
1728
1730
1738
1732
1717
1729
1727
1728
1741
1725
1699
1702
1711
1698
1712
1721
1716
1728
1755
1781
1801
1843
1844
1874
1887
1902
1893
1904
1907
1875
1900
1906
1903
1904
1917
1911
1907
1905
1904
1891
1909
1914
1889
1891
1901
1909
1905
1915
1906
1904
1901
1907
1901
1915
1922
1907
1899
1908
1893
1905
1954
1989
2007
2016
2042
2082
2072
2070
2055
2029
1972
1925
1886
1872
1846
1838
1834
1825
1811
1828
1842
1825
1836
1843
1752
1563
1453
1609
1984
2582
4035
4095
3043
2186
1775
1729
1808
1803
1744
1744
1805
1716
1728
1711
1705
1713
1700
1702
1715
1717
1698
1711
1733
1690
1730
1711
1693
1669
1683
1692
1680
1676
1683
1685
1693
1728
1728
1766
1806
1826
1842
1872
1872
1869
1889
1881
1865
1870
1867
1885
1877
1891
1874
1866
1882
1873
1878
1887
1874
1862
1867
1883
1872
1872
1893
1878
1872
1876
1870
1867
1872
1883
1883
1888
1883
1882
1875
1876
1893
1955
1998
1985
1984
2026
2047
2031
2029
1987
1958
1930
1893
1845
1812
1829
1825
1819
1819
1808
1808
1826
1823
1827
1769
1593
1418
1535
1898
2419
3632
4095
3285
2304
1830
1714
1772
1793
1769
1742
1717
1714
1709
1701
1712
1715
1693
1707
1712
1696
1721
1716
1690
1702
1712
1699
1707
1687
1680
1668
1669
1682
1667
1691
1714
1724
1747
1790
1819
1847
1876
1881
1899
1922
1938
1920
1919
1921
1920
1920
1932
1920
1921
1935
1911
1906
1916
1917
1910
1921
1927
1925
1920
1936
1930
1929
1935
1934
1920
1936
1936
1939
1954
1940
1931
1937
1947
1930
1949
1999
2057
2054
2057
2081
2096
2096
2107
2066
2019
1991
1939
1913
1893
1865
1867
1872
1866
1847
1854
1872
1871
1873
1843
1623
1479
1600
1936
2417
3453
4095
3583
2475
1941
1727
1739
1808
1779
1761
1756
1730
1731
1732
1719
1712
1727
1713
1712
1726
1701
1712
1744
1731
1698
1711
1712
1685
1662
1664
1674
1678
1684
1681
1681
1698
1746
1779
1818
1845
1882
1904
1937
1929
1917
1937
1926
1979
1929
1936
1942
1937
1946
1925
1936
1956
1956
1922
1925
1921
1920
1929
1933
1947
1950
1943
1936
1945
1955
1942
1945
1947
1937
1941
1972
1974
1939
1995
2045
2016
2023
2087
2099
2101
2107
2081
2043
2006
1973
1906
1899
1913
1879
1872
1899
1882
1862
1872
1879
1879
1847
1711
1572
1659
2027
2464
3219
4095
3442
2499
2085
1851
1712
1776
1792
1759
1775
1765
1724
1717
1738
1744
1743
1745
1729
1720
1744
1744
1735
1742
1718
1686
1687
1680
1659
1633
1667
1677
1675
1672
1686
1698
1725
1755
1819
1885
1916
1891
1933
1971
1968
1973
1990
1997
1969
1964
1968
1971
1965
1958
1953
1968
1963
1953
1953
1955
1936
1929
1964
1959
1939
1938
1938
1930
1950
1974
1958
1955
1958
1947
1971
2002
2031
2009
2032
2106
2128
2126
2128
2070
2019
1990
1963
1924
1901
1901
1855
1867
1869
1867
1872
1876
1851
1840
1849
1707
1558
1647
2000
2427
3182
4095
3465
2522
2080
1791
1681
1760
1786
1756
1742
1726
1718
1711
1713
1706
1719
1743
1723
1706
1716
1718
1723
1717
1712
1695
1659
1665
1664
1665
1671
1648
1648
1676
1679
1680
1724
1751
1793
1854
1878
1878
1922
1927
1938
1947
1962
1946
1936
1941
1926
1931
1942
1936
1933
1951
1947
1936
1933
1935
1935
1930
1941
1942
1936
1936
1936
1914
1935
1963
1936
1937
1949
1951
1960
2019
1957
1947
1950
1987
2026
2058
2066
2085
2129
2135
2102
2085
2059
2007
1965
1937
1904
1882
1894
1902
1866
1863
1878
1871
1861
1872
1878
1791
1570
1523
1795
2191
2823
4095
4095
2785
2117
1819
1768
1809
1808
1807
1776
1751
1751
1747
1743
1742
1760
1751
1750
1767
1763
1767
1757
1745
1751
1755
1742
1735
1741
1712
1709
1723
1734
1792
1803
1780
1777
1817
1793
1843
1887
1905
1921
1923
1953
1962
1951
1937
1961
1943
1925
1931
1936
1920
1949
1961
1941
1943
1933
1922
1935
1957
1951
1930
1947
1943
1922
1931
1941
1951
1948
1946
1946
1948
1950
1923
1938
1947
1957
1942
1933
1945
1985
2030
2046
2030
2066
2112
2097
2080
2077
2044
1984
1968
1915
1863
1871
1871
1839
1835
1870
1843
1825
1841
1855
1840
1728
1513
1483
1712
2231
2891
4095
4095
2612
2015
1758
1730
1808
1809
1766
1733
1744
1742
1730
1726
1708
1718
1730
1741
1719
1695
1709
1722
1730
1727
1717
1677
1681
1698
1685
1671
1663
1671
1678
1712
1715
1714
1736
1769
1814
1840
1852
1851
1874
1878
1874
1863
1882
1882
1863
1883
1879
1879
1877
1883
1873
1871
1883
1873
1872
1883
1867
1856
1879
1891
1870
1869
1885
1885
1889
1872
1870
1872
1898
1894
1887
1875
1866
1889
1889
1888
1863
1886
1978
1982
1981
2000
2041
2064
2053
2037
2006
1983
1934
1883
1856
1846
1829
1824
1813
1801
1803
1810
1799
1807
1813
1775
1556
1438
1578
1889
2528
3596
4095
3170
2160
1789
1690
1786
1811
1749
1739
1753
1728
1717
1722
1722
1713
1724
1728
1726
1715
1718
1731
1740
1734
1725
1723
1723
1696
1680
1701
1702
1682
1696
1721
1713
1758
1776
1808
1830
1867
1880
1899
1940
1934
1919
1929
1915
1913
1927
1925
1915
1917
1933
1922
1920
1925
1914
1911
1917
1906
1918
1919
1910
1922
1920
1902
1901
1923
1928
1894
1890
1911
1907
1903
1899
1883
1889
1904
1917
1902
1887
1904
1895
1906
1947
1968
1975
1998
2041
2047
2057
2047
2031
2005
1968
1914
1867
1830
1829
1827
1840
1815
1811
1812
1811
1821
1833
1807
1668
1482
1535
1858
2291
3008
4095
3458
2461
1994
1749
1680
1759
1759
1744
1744
1743
1725
1714
1712
1713
1718
1734
1724
1726
1737
1718
1714
1741
1712
1707
1704
1686
1675
1680
1689
1680
1678
1679
1706
1734
1762
1766
1803
1883
1905
1904
1925
1936
1933
1939
1955
1938
1962
1987
1951
1942
1947
1957
1958
1971
1966
1957
1962
1946
1919
1930
1974
1939
1960
1978
1962
1941
1974
1982
1972
1967
1943
1957
1974
1975
1967
1955
2002
2047
2066
2067
2091
2119
2138
2139
2134
2120
2071
2013
1950
1950
1925
1931
1921
1891
1872
1886
1906
1902
1925
1929
1824
1628
1597
1823
2274
2836
3957
4095
2839
2261
1927
1733
1779
1843
1837
1811
1808
1809
1815
1785
1786
1805
1799
1797
1798
1808
1805
1800
1788
1787
1781
1767
1749
1744
1747
1735
1712
1730
1735
1755
1768
1808
1836
1878
1929
1943
1968
1988
2011
2017
2019
2031
2012
2011
2029
1985
1990
2014
2020
2022
2013
1995
1981
1990
2001
1995
1997
1991
1975
1991
2005
2006
2000
2017
2007
1993
2003
2006
1995
2002
2020
2009
2009
2010
2000
1999
2000
1995
2039
2099
2112
2096
2134
2163
2173
2172
2141
2115
2085
2055
1993
1938
1941
1937
1919
1922
1904
1891
1904
1920
1909
1908
1811
1594
1566
1763
2215
2823
4095
4095
2796
2155
1863
1753
1839
1859
1817
1783
1802
1789
1776
1776
1776
1779
1778
1789
1790
1801
1815
1801
1775
1789
1777
1759
1754
1749
1755
1733
1727
1722
1735
1754
1785
1801
1819
1853
1879
1911
1941
1941
1940
1953
1955
1937
1951
1943
1950
1948
1938
1938
1940
1941
1939
1939
1931
1936
1939
1918
1931
1936
1938
1946
1951
1962
1941
1936
1948
1951
1935
1955
1957
1939
1936
1948
1936
1933
1943
1936
1924
1941
1951
1923
1949
2019
2064
2055
2064
2095
2118
2128
2115
2076
2045
1989
1930
1885
1877
1862
1859
1856
1848
1841
1840
1840
1840
1854
1795
1590
1461
1590
1945
2511
3786
4095
3021
2207
1799
1708
1783
1805
1776
1761
1736
1723
1739
1742
1726
1717
1724
1730
1731
1728
1727
1728
1750
1744
1718
1715
1711
1690
1679
1689
1683
1682
1712
1707
1712
1737
1792
1802
1835
1844
1858
1904
1920
1904
1883
1879
1885
1891
1899
1874
1867
1879
1903
1890
1856
1872
1891
1901
1872
1858
1872
1840
1881
1831
1872
1885
1872
1865
1879
1877
1887
1889
1882
1872
1871
1877
1872
1895
1891
1894
1867
1883
1902
1901
1894
1885
1883
1887
1930
1978
2001
1999
2025
2078
2103
2070
2033
2035
1991
1937
1891
1843
1821
1830
1840
1823
1821
1811
1802
1819
1837
1818
1665
1475
1462
1663
2160
2862
4095
3952
2525
1968
1696
1703
1778
1786
1777
1739
1712
1723
1714
1707
1723
1721
1712
1721
1738
1747
1729
1737
1731
1714
1733
1733
1709
1711
1698
1690
1714
1715
1696
1711
1758
1776
1796
1838
1868
1879
1899
1914
1913
1918
1911
1891
1909
1921
1900
1904
1926
1916
1909
1913
1921
1899
1917
1927
1931
1925
1921
1912
1931
1941
1919
1907
1903
1909
1920
1921
1903
1904
1913
1920
1904
1900
1915
1920
1909
1909
1904
1893
1903
1885
1894
1898
1885
1871
1898
1903
1883
1882
1908
1946
1975
1986
1990
2032
2053
2044
2005
1984
1947
1898
1873
1853
1822
1808
1807
1798
1776
1778
1792
1775
1776
1789
1730
1534
1456
1585
1914
2438
3600
4095
2881
2147
1741
1604
1684
1728
1704
1701
1680
1667
1674
1671
1651
1655
1678
1666
1666
1674
1693
1696
1692
1663
1649
1658
1642
1632
1653
1639
1623
1630
1651
1665
1690
1695
1711
1714
1781
1807
1837
1872
1879
1866
1874
1889
1884
1879
1883
1873
1874
1889
1872
1870
1883
1872
1894
1895
1883
1870
1892
1910
1898
1890
1890
1883
1897
1937
1920
1895
1913
1934
1931
1914
1909
1910
1915
1934
1923
1951
1947
1936
1907
1907
1907
1947
1978
2009
2000
2034
2105
2094
2078
2073
2057
2017
1967
1945
1904
1871
1886
1881
1883
1895
1855
1863
1873
1866
1879
1852
1679
1559
1735
2081
2528
3347
4095
3136
2405
2045
1744
1680
1782
1826
1806
1778
1776
1779
1783
1789
1772
1791
1792
1782
1775
1787
1776
1769
1761
1761
1769
1711
1744
1714
1697
1712
1721
1723
1745
1773
1789
1836
1872
1885
1907
1952
1993
2005
2021
2010
1989
1987
2003
2000
2017
2029
2001
2003
2012
2003
1989
2002
1973
1990
2013
1999
1985
1990
2000
1996
1991
1997
1968
1987
2006
1991
1996
2002
2000
1995
1999
2000
2000
1985
2001
2000
1968
2014
2058
2093
2108
2108
2153
2182
2169
2147
2134
2110
2036
2000
1984
1947
1918
1919
1909
1902
1913
1925
1912
1897
1920
1881
1727
1621
1737
2067
2525
3379
4095
3207
2422
2043
1763
1719
1809
1851
1842
1811
1801
1786
1773
1792
1801
1797
1792
1805
1801
1785
1822
1811
1782
1778
1794
1754
1744
1756
1746
1728
1741
1737
1751
1767
1790
1802
1872
1891
1913
1949
1990
1994
1986
1984
1993
1973
1983
1991
1970
1989
1991
1963
1952
1977
1984
1984
1968
1951
1942
1939
1953
1946
1954
1968
1929
1940
1968
1963
1951
1949
1940
1906
1949
1954
1952
1959
1951
1938
1936
1936
1947
1936
1967
2002
2045
2034
2031
2101
2142
2126
2093
2069
2075
2001
1966
1927
1881
1864
1871
1874
1847
1847
1856
1828
1844
1840
1821
1687
1514
1601
1856
2305
3200
4095
3459
2474
1921
1702
1706
1785
1793
1786
1747
1728
1728
1742
1742
1751
1759
1747
1745
1750
1754
1744
1765
1755
1739
1745
1749
1739
1730
1699
1701
1723
1739
1738
1749
1776
1790
1819
1856
1886
1914
1935
1918
1917
1931
1927
1921
1926
1923
1910
1933
1941
1920
1892
1918
1920
1936
1939
1941
1915
1908
1920
1930
1935
1918
1904
1907
1933
1930
1904
1909
1921
1933
1936
1921
1914
1915
1927
1910
1914
1950
1937
1927
1926
1930
1925
1966
2021
2032
2032
2070
2112
2131
2131
2096
2061
2033
1984
1898
1872
1868
1850
1857
1836
1841
1840
1851
1830
1838
1843
1761
1553
1483
1629
1985
2572
4032
4095
2874
2127
1757
1723
1819
1828
1772
1735
1762
1766
1763
1750
1727
1728
1761
1758
1787
1744
1748
1746
1763
1763
1744
1759
1747
1742
1734
1733
1725
1728
1754
1758
1773
1788
1827
1856
1895
1907
1897
1899
1923
1927
1918
1920
1920
1917
1919
1918
1913
1922
1920
1920
1920
1921
1903
1909
1910
1915
1907
1918
1918
1898
1910
1904
1891
1902
1906
1895
1901
1910
1904
1883
1901
1901
1883
1887
1895
1891
1881
1887
1874
1883
1887
1875
1867
1879
1886
1921
1974
1996
1979
2017
2067
2059
2028
2029
2011
1960
1895
1826
1788
1798
1797
1775
1771
1779
1770
1767
1774
1744
1734
1586
1392
1405
1675
2128
2833
4095
3447
2352
1841
1626
1637
1718
1710
1658
1648
1637
1611
1618
1633
1633
1621
1610
1623
1625
1626
1643
1632
1624
1621
1610
1600
1598
1594
1568
1587
1600
1595
1594
1637
1645
1659
1703
1719
1728
1753
1776
1703
1777
1802
1809
1805
1794
1791
1801
1809
1797
1782
1810
1785
1785
1794
1810
1793
1807
1806
1808
1822
1808
1808
1815
1821
1825
1826
1831
1817
1815
1822
1827
1821
1830
1831
1813
1811
1831
1841
1824
1821
1840
1840
1834
1837
1841
1850
1856
1835
1840
1873
1885
1912
1930
1968
1989
2000
2009
1989
1967
1942
1901
1845
1813
1826
1815
1805
1771
1792
1808
1815
1791
1797
1797
1736
1566
1515
1701
2033
2593
3809
3941
2753
2192
1823
1646
1665
1760
1744
1743
1729
1711
1697
1698
1713
1738
1734
1776
1725
1733
1739
1747
1741
1713
1715
1722
1680
1638
1701
1713
1681
1667
1699
1699
1716
1757
1798
1825
1859
1878
1905
1947
1969
1979
1962
1969
1951
1959
1967
1959
1969
1971
1968
1959
1954
1968
1965
1968
1985
1977
1962
1957
1957
1946
1975
1977
1979
1987
1984
1976
1999
1998
1989
1988
1987
1984
1993
2000
1984
1995
2003
2009
2000
1996
1994
1989
2032
2085
2096
2091
2135
2173
2158
2139
2138
2121
2065
2045
2005
1978
1953
1930
1936
1936
1920
1919
1939
1934
1921
1933
1883
1715
1619
1786
2118
2602
3773
4095
3095
2383
1984
1771
1794
1856
1847
1847
1848
1825
1823
1840
1826
1824
1846
1837
1820
1834
1840
1826
1830
1827
1826
1808
1798
1792
1782
1789
1778
1782
1799
1798
1808
1840
1885
1900
1938
1989
2005
2017
2031
2020
2031
2034
2013
2020
2021
2025
2030
2038
2020
2005
2019
2055
2032
2021
2007
2002
2018
2025
1996
1997
2005
2009
2011
2004
2007
2000
2001
2012
2022
2006
2005
2023
2018
2002
2021
2007
2010
2010
1991
1997
2003
1979
1979
2000
1991
1990
2039
2098
2106
2096
2146
2174
2174
2169
2144
2137
2094
2011
1950
1941
1921
1898
1904
1889
1875
1899
1891
1867
1885
1904
1776
1581
1552
1730
2150
2813
4095
4026
2711
2108
1775
1756
1847
1825
1810
1803
1782
1774
1778
1778
1744
1770
1779
1778
1779
1776
1775
1769
1779
1775
1751
1747
1746
1742
1746
1744
1743
1731
1746
1761
1783
1805
1808
1837
1878
1900
1901
1905
1911
1914
1905
1909
1899
1895
1904
1907
1899
1888
1901
1908
1920
1897
1871
1887
1900
1887
1879
1879
1879
1881
1887
1883
1867
1872
1873
1866
1869
1882
1875
1867
1877
1872
1858
1869
1856
1862
1878
1883
1864
1859
1863
1861
1863
1863
1840
1904
1969
1984
1963
2006
2037
2057
2032
2002
1979
1932
1877
1821
1790
1792
1781
1762
1756
1760
1858
1760
1758
1733
1743
1618
1408
1389
1647
2090
2704
4085
3546
2410
1868
1648
1655
1744
1722
1677
1674
1675
1658
1648
1655
1648
1644
1638
1660
1659
1648
1654
1648
1641
1648
1645
1635
1646
1618
1595
1601
1598
1604
1613
1655
1649
1664
1697
1712
1750
1778
1777
1786
1808
1820
1824
1808
1805
1783
1785
1801
1808
1803
1818
1807
1808
1827
1822
1803
1799
1809
1799
1815
1813
1808
1811
1834
1826
1813
1809
1808
1819
1835
1827
1811
1808
1841
1839
1829
1829
1838
1823
1838
1837
1796
1841
1855
1838
1831
1847
1898
1948
1958
1968
2006
2041
2053
2032
1998
1993
1936
1889
1840
1815
1810
1802
1807
1809
1811
1808
1798
1805
1827
1782
1600
1511
1633
1952
2544
3447
4095
3055
2215
1894
1685
1666
1755
1783
1774
1730
1735
1734
1744
1731
1728
1723
1747
1759
1754
1751
1755
1760
1744
1750
1744
1719
1712
1712
1717
1694
1696
1693
1712
1737
1777
1806
1856
1895
1907
1947
1984
1971
1983
1984
1986
1978
2000
1994
1983
1977
1991
2007
2003
2001
1995
1989
2000
1983
1999
1997
1989
1973
1986
2002
2011
1981
1998
1997
2003
2032
2013
1995
2003
2000
2000
2000
1995
2002
2031
2079
2096
2096
2118
2173
2194
2201
2177
2160
2143
2096
2031
1990
1969
1934
1929
1935
1909
1921
1934
1925
1905
1909
1909
1781
1615
1650
1955
2385
3088
4095
3574
2593
2132
1855
1723
1814
1839
1819
1831
1791
1779
1782
1779
1792
1813
1805
1787
1782
1797
1790
1797
1797
1762
1744
1771
1750
1723
1721
1714
1719
1733
1733
1748
1775
1819
1841
1902
1943
1969
2000
2000
1984
1974
1979
1986
2001
2002
1984
1983
1983
2000
1990
1997
2010
1985
1979
1985
1989
1981
1969
1967
1959
1983
1975
1954
1981
1991
1967
1967
1969
1968
1970
1973
1983
2031
1983
1983
1989
1984
1979
1968
1970
2035
2047
2070
2081
2115
2112
2173
2149
2126
2109
2080
2026
1982
1936
1892
1895
1902
1903
1885
1887
1872
1872
1895
1894
1840
1666
1563
1680
1969
2450
3504
4095
3286
2386
1922
1737
1773
1827
1822
1803
1792
1776
1780
1777
1774
1779
1790
1776
1788
1793
1790
1789
1808
1789
1765
1770
1769
1743
1735
1750
1755
1761
1746
1747
1774
1808
1833
1859
1887
1909
1936
1968
1953
1955
1970
1965
1946
1949
1967
1949
1963
1979
1952
1950
1971
1975
1958
1958
1977
1969
1966
1965
1954
1951
1955
1942
1949
1958
1968
1963
1971
1970
1968
1970
1984
1962
1973
1971
1957
1952
1975
1959
1957
1972
1968
1953
1961
2032
2082
2079
2079
2112
2160
2163
2143
2106
2096
2037
1989
1943
1910
1893
1887
1886
1855
1861
1879
1872
1841
1863
1819
1765
1543
1520
1680
2074
2822
4095
4095
2775
2009
1757
1746
1819
1813
1798
1785
1765
1749
1761
1743
1744
1804
1761
1747
1767
1759
1751
1758
1761
1730
1732
1738
1718
1711
1721
1697
1700
1715
1722
1724
1742
1776
1806
1830
1843
1858
1897
1901
1875
1881
1895
1868
1867
1872
1871
1865
1861
1875
1874
1879
1887
1858
1872
1884
1874
1870
1867
1863
1869
1867
1879
1858
1856
1869
1854
1845
1867
1857
1859
1863
1863
1856
1871
1870
1840
1855
1856
1834
1834
1850
1852
1862
1859
1853
1852
1855
1841
1900
1950
1965
1941
1991
2059
2037
2015
2000
1971
1922
1889
1827
1781
1767
1786
1782
1778
1767
1760
1746
1792
1783
1766
1616
1428
1450
1696
2233
2954
4095
3563
2332
1904
1668
1639
1753
1781
1721
1710
1695
1699
1694
1709
1728
1718
1706
1711
1718
1723
1745
1730
1702
1723
1731
1712
1694
1668
1694
1712
1707
1706
1716
1737
1759
1766
1833
1872
1898
1907
1907
1924
1938
1962
1939
1941
1966
1961
1955
1957
1959
1950
1957
1970
1955
1952
1963
1967
1969
1995
1982
1969
1959
1968
1983
1993
1984
1974
1990
2005
1989
2000
1995
1989
1994
2011
2010
1994
2011
1993
1983
2002
2009
1990
1997
2019
2032
2065
2107
2096
2112
2190
2195
2161
2162
2138
2122
2080
2024
1983
1987
1991
1951
1951
1968
1939
1927
1953
1963
1945
1911
1801
1649
1721
2064
2492
3252
4095
3409
2543
2150
1871
1744
1847
1889
1856
1846
1852
1843
1833
1847
1843
1843
1841
1846
1842
1851
1853
1836
1826
1825
1809
1783
1780
1785
1766
1765
1764
1762
1775
1787
1808
1851
1894
1936
1968
1991
2006
2019
2041
2034
2032
2047
2026
2004
2013
2032
2019
2018
2031
2023
2022
2031
2004
1991
1999
1991
1984
1998
1995
1977
1982
1989
1997
2000
1993
1986
1979
1995
1984
1970
1968
1999
1989
1978
1995
1990
1987
1991
1978
1969
1970
1968
1986
2058
2071
2053
2095
2128
2134
2113
2106
1971
2017
1999
1953
1914
1888
1874
1861
1869
1866
1849
1845
1855
1837
1847
1817
1634
1521
1668
1986
2480
3383
4095
3008
2256
1891
1648
1697
1775
1758
1734
1713
1712
1698
1713
1712
1706
1711
1712
1714
1706
1726
1712
1691
1698
1705
1696
1695
1664
1653
1664
1674
1670
1677
1687
1678
1705
1755
1776
1798
1827
1856
1872
1871
1881
1877
1872
1870
1870
1862
1872
1868
1867
1885
1876
1859
1872
1877
1850
1862
1877
1877
1863
1870
1862
1870
1868
1870
1870
1872
1885
1867
1866
1883
1889
1895
1906
1890
1923
1897
1882
1848
1894
1904
1894
1843
1897
1899
1906
1891
1874
1935
1985
2003
1998
2043
2080
2084
2086
2069
2029
1993
1946
1897
1855
1843
1838
1839
1826
1810
1826
1834
1840
1839
1837
1767
1557
1462
1577
1893
2466
3562
4095
2967
2161
1808
1712
1814
1839
1808
1778
1782
1774
1760
1760
1773
1762
1777
1778
1775
1742
1778
1777
1795
1789
1777
1778
1777
1774
1755
1742
1741
1751
1771
1786
1795
1807
1842
1891
1907
1920
1942
1936
1971
1968
1940
1940
1941
1947
1957
1958
1939
1936
1936
1933
1930
1939
1936
1925
1935
1920
1899
1925
1929
1903
1903
1921
1915
1920
1915
1902
1911
1908
1890
1893
1902
1915
1875
1873
1901
1899
1881
1881
1888
1878
1884
1875
1878
1878
1925
1967
1979
1974
2000
2046
2074
2032
2011
1989
1951
1911
1887
1837
1799
1794
1808
1813
1839
1790
1792
1799
1808
1882
1727
1505
1452
1589
1974
2627
3669
4081
2823
2058
1760
1664
1715
1744
1747
1727
1680
1694
1702
1704
1699
1701
1714
1712
1725
1712
1712
1721
1715
1709
1711
1714
1697
1675
1689
1678
1675
1674
1670
1686
1728
1744
1726
1793
1819
1855
1883
1910
1913
1904
1914
1915
1924
1921
1905
1905
1917
1920
1907
1917
1939
1920
1924
1927
1904
1891
1925
1938
1909
1900
1919
1920
1930
1911
1911
1920
1949
1924
1919
1942
1932
1933
1911
1909
1919
1932
1941
1920
1934
1970
2017
2010
2046
2096
2105
2101
2093
2064
2030
1984
1957
1909
1889
1866
1878
1886
1862
1852
1856
1855
1850
1872
1861
1731
1582
1596
1828
2306
2972
4095
3717
2527
2095
1834
1679
1738
1777
1772
1786
1760
1757
1760
1755
1760
1779
1776
1773
1767
1749
1750
1774
1767
1737
1723
1728
1712
1710
1691
1673
1682
1711
1713
1717
1749
1779
1820
1854
1898
1917
1934
1971
1963
1965
1968
1969
1961
1966
1951
1983
1962
1984
1968
1968
1967
1962
1949
1971
1966
1947
1943
1939
1931
1936
1942
1943
1948
1954
1942
1942
1943
1936
1938
1957
1957
1935
1936
1954
1949
1948
1950
1927
1931
1943
1940
1969
2030
2046
2033
2078
2112
2087
2099
2098
2038
1984
1951
1907
1889
1899
1859
1851
1866
1863
1850
1857
1859
1856
1859
1811
1579
1523
1689
2019
2647
3775
4095
2870
2141
1843
1663
1722
1790
1776
1732
1745
1735
1733
1749
1750
1746
1746
1762
1750
1744
1753
1747
1744
1738
1723
1723
1738
1723
1699
1699
1695
1687
1711
1729
1745
1778
1805
1839
1871
1907
1922
1933
1941
1947
1939
1915
1927
1909
1938
1953
1941
1923
1926
1936
1936
1931
1936
1939
1936
1926
1927
1940
1955
1929
1915
1926
1936
1936
1936
1941
1929
1946
1947
1929
1882
1936
1936
1931
1947
1936
1924
1920
1923
1920
1930
1932
1961
2006
2110
2035
2047
2128
2128
2113
2089
2069
2039
2004
1951
1887
1874
1853
1843
1847
1865
1849
1839
1857
1857
1855
1840
1659
1496
1543
1763
2313
3171
4095
3544
2331
1904
1705
1744
1855
1838
1789
1773
1770
1750
1759
1781
1761
1754
1766
1766
1776
1792
1776
1759
1779
1785
1777
1754
1767
1751
1747
1744
1742
1755
1776
1786
1804
1840
1867
1882
1915
1931
1933
1941
1947
1947
1951
1954
1930
1933
1952
1950
1917
1932
1939
1937
1937
1941
1919
1904
1927
1921
1917
1923
1923
1913
1918
1918
1899
1907
1937
1918
1919
1921
1897
1897
1914
1918
1905
1898
1905
1900
1898
1902
1881
1877
1890
1886
1877
1900
1936
1960
1966
1974
2018
2077
2064
2027
2030
2013
1946
1883
1843
1814
1788
1798
1786
1773
1777
1765
1750
1767
1790
1763
1683
1527
1419
1517
1859
2383
3553
4075
2785
2054
1700
1604
1667
1707
1675
1667
1675
1670
1650
1650
1651
1674
1680
1664
1664
1641
1661
1657
1665
1655
1600
1645
1656
1644
1584
1598
1616
1645
1645
1659
1683
1702
1728
1766
1792
1794
1834
1853
1850
1862
1863
1856
1857
1857
1851
1868
1858
1840
1849
1861
1858
1840
1863
1863
1849
1838
1842
1847
1862
1877
1861
1846
1873
1867
1856
1874
1872
1882
1888
1887
1879
1871
1875
1889
1872
1872
1863
1858
1873
1877
1870
1862
1885
1925
1955
1971
1974
2023
2058
2033
2011
2003
2007
1975
1930
1893
1855
1866
1860
1840
1826
1835
1839
1837
1846
1850
1840
1808
1617
1520
1658
2002
2589
3479
4095
3009
2261
1947
1706
1677
1774
1788
1770
1767
1780
1747
1750
1776
1773
1790
1803
1776
1759
1780
1774
1754
1759
1755
1744
1749
1727
1712
1712
1738
1715
1725
1744
1774
1785
1820
1866
1898
1936
1968
1991
2007
2013
1991
2000
2012
1999
1999
2007
2031
2002
2006
2017
1993
1975
2000
1997
1993
1991
1975
1967
1990
1999
1968
1986
1982
1968
1982
1998
1984
1979
2000
1999
1994
1986
1984
1983
1984
1987
1968
1984
1994
1984
1986
1997
2003
2066
2082
2077
2100
2150
2142
2131
2129
2093
2043
2006
2000
1945
1933
1920
1907
1882
1894
1905
1908
1924
1915
1889
1899
1744
1584
1634
1903
2435
3231
4095
3498
2413
2015
1776
1714
1816
1834
1808
1802
1796
1792
1790
1790
1799
1818
1815
1806
1805
1799
1802
1794
1803
1802
1787
1770
1770
1758
1744
1744
1757
1762
1776
1789
1802
1825
1886
1914
1933
1946
1953
1982
1993
1980
1965
1969
1968
1969
1969
1959
1970
1987
1987
1972
1946
1968
1991
1973
1972
1970
1958
1962
1963
1953
1951
1953
1953
1966
1975
1965
1940
1936
1963
1955
1971
1966
1942
1950
1965
1953
1941
1952
1948
1936
1937
1942
1946
1968
1956
1934
1968
2022
2059
2046
2097
2127
2128
2123
2115
2094
2037
1985
1936
1911
1893
1873
1872
1872
1870
1846
1855
1851
1857
1867
1815
1656
1495
1525
1799
2304
3149
4095
3310
2350
1897
1712
1790
1834
1798
1785
1776
1763
1747
1744
1744
1746
1761
1747
1745
1781
1789
1771
1766
1776
1776
1766
1751
1728
1727
1734
1735
1735
1741
1748
1758
1791
1826
1850
1873
1881
1886
1921
1949
1926
1915
1922
1919
1911
1919
1922
1904
1917
1921
1921
1927
1938
1923
1935
1936
1923
1919
1921
1921
1903
1894
1874
1894
1893
1911
1907
1912
1921
1891
1895
1902
1898
1875
1883
1904
1888
1876
1899
1857
1873
1890
1808
1863
1872
1874
1863
1866
1886
1881
1904
1954
1951
1952
1990
2023
2025
2027
2007
1970
1930
1891
1840
1819
1782
1751
1763
1799
1790
1767
1771
1766
1758
1776
1759
1549
1431
1499
1762
2313
3139
4095
3059
2169
1808
1586
1616
1706
1699
1709
1687
1677
1659
1664
1682
1666
1670
1665
1675
1693
1678
1685
1689
1680
1664
1654
1652
1653
1650
1648
1631
1648
1670
1676
1692
1712
1746
1762
1806
1846
1858
1866
1858
1874
1872
1872
1879
1862
1872
1892
1883
1876
1886
1865
1877
1901
1877
1869
1858
1865
1877
1881
1890
1863
1878
1879
1872
1878
1886
1887
1875
1895
1899
1876
1889
1888
1892
1892
1903
1901
1886
1885
1882
1887
1887
1901
1937
1987
1981
2002
2054
2069
2057
2059
2033
1991
1959
1936
1901
1856
1847
1830
1849
1856
1843
1819
1836
1856
1838
1830
1759
1569
1584
1793
2163
2883
4041
3711
2651
2110
1813
1639
1711
1797
1771
1743
1719
1734
1741
1750
1735
1739
1749
1742
1735
1773
1774
1745
1728
1721
1713
1712
1701
1667
1660
1667
1685
1680
1691
1713
1740
1758
1803
1851
1877
1909
1936
1941
1963
1964
1961
1939
1951
1936
1939
1954
1952
1943
1968
1967
1969
1968
1958
1939
1934
1948
1922
1917
1931
1923
1935
1950
1927
1926
1941
1940
1933
1956
1950
1938
1931
1939
1939
1935
1966
1954
1941
1950
1941
1959
2010
2035
2030
2042
2102
2119
2112
2094
2070
2061
2012
1947
1909
1895
1899
1881
1861
1876
1871
1866
1871
1861
1863
1878
1783
1587
1550
1774
2129
2663
3746
3950
2747
2181
1879
1685
1755
1799
1787
1776
1756
1746
1761
1769
1757
1771
1776
1786
1765
1783
1779
1775
1780
1766
1752
1750
1749
1731
1725
1725
1715
1738
1750
1744
1773
1798
1823
1867
1913
1922
1946
1970
2003
1968
1975
1946
1935
1938
1957
1963
1973
1968
1917
1954
1968
1959
1923
1954
1968
1963
1957
1947
1939
1943
1958
1955
1935
1950
1967
1955
1965
1967
1943
1944
1968
1959
1958
1954
1941
1942
1952
1958
1946
1949
1959
1935
1978
2038
2064
2059
2091
2129
2138
2139
2123
2105
2086
2014
1936
1904
1887
1881
1886
1885
1869
1875
1858
1843
1858
1869
1840
1599
1503
1573
1833
2310
3095
4095
3450
2432
1936
1712
1776
1834
1811
1782
1787
1763
1770
1776
1756
1755
1788
1777
1775
1791
1858
1771
1776
1776
1770
1766
1763
1751
1739
1734
1742
1744
1770
1778
1776
1793
1830
1858
1887
1898
1909
1904
1942
1945
1918
1936
1947
1923
1936
1920
1907
1927
1936
1898
1904
1934
1927
1930
1921
1920
1920
1920
1921
1922
1910
1899
1914
1920
1936
1920
1914
1909
1911
1906
1936
1920
1903
1905
1919
1921
1904
1919
1907
1903
1913
1963
2002
2041
2032
2065
2115
2118
2075
2063
2064
2013
1953
1917
1872
1851
1857
1827
1818
1839
1843
1834
1820
1819
1835
1783
1590
1450
1520
1860
2369
3313
4095
2978
2141
1782
1654
1756
1789
1772
1742
1731
1731
1712
1709
1719
1722
1714
1701
1703
1700
1719
1726
1680
1695
1712
1680
1677
1680
1659
1648
1665
1669
1666
1697
1695
1710
1749
1810
1823
1840
1856
1847
1872
1895
1891
1872
1881
1886
1873
1863
1872
1863
1867
1869
1858
1864
1881
1866
1863
1894
1876
1862
1877
1870
1851
1860
1875
1866
1874
1881
1874
1865
1891
1913
1887
1850
1858
1874
1872
1873
1875
1868
1863
1859
1915
1961
1968
1961
2011
2045
2057
2055
2053
2013
1957
1933
1887
1857
1819
1811
1824
1824
1843
1815
1814
1825
1829
1822
1783
1593
1514
1691
1990
2455
3523
4095
2885
2233
1902
1687
1662
1731
1750
1731
1737
1709
1697
1712
1712
1721
1748
1737
1712
1711
1728
1727
1703
1672
1703
1687
1667
1682
1653
1677
1680
1660
1682
1696
1726
1754
1779
1813
1853
1898
1919
1916
1930
1945
1946
1962
1966
1946
1952
1958
1951
1954
1958
1958
1969
1968
1956
1945
1952
1974
1936
1934
1949
1955
1947
1968
1943
1943
1957
1956
1940
1936
1942
1954
1956
1981
2025
2037
2064
2074
2122
2147
2115
2085
2075
2035
1982
1936
1897
1850
1850
1874
1867
1857
1853
1846
1849
1863
1839
1818
1649
1558
1661
1963
2534
3427
4095
3122
2279
1941
1694
1635
1735
1762
1744
1750
1731
1701
1697
1707
1729
1731
1732
1718
1710
1714
1728
1744
1654
1745
1695
1664
1662
1648
1632
1610
1638
1644
1651
1676
1685
1727
1803
1857
1891
1904
1927
1923
1906
1920
1920
1917
1930
1921
1920
1926
1933
1909
1911
1935
1930
1919
1927
1911
1925
1934
1923
1907
1906
1920
1927
1939
1931
1907
1919
1939
1936
1923
1935
1950
1933
1953
1945
1933
1923
1983
2010
2031
2055
2064
2112
2144
2121
2096
2083
2080
2019
1977
1942
1919
1895
1906
1889
1874
1873
1887
1897
1904
1906
1875
1779
1610
1617
1820
2247
2897
4095
3820
2638
2091
1792
1759
1854
1885
1855
1815
1800
1818
1822
1826
1824
1831
1840
1837
1833
1841
1859
1847
1846
1856
1861
1825
1806
1821
1806
1822
1819
1825
1834
1856
1872
1891
1918
1969
1997
2028
2045
2032
2032
2055
2047
2047
2064
2041
2031
2029
2043
2037
2061
2067
2064
2052
2057
2057
2057
2071
2063
2054
2046
2035
2018
2027
2064
2057
2029
2029
2036
2057
2064
2059
2037
2045
2033
2042
2063
2061
2032
2043
2039
2042
2034
2112
2154
2146
2153
2197
2243
2235
2218
2190
2176
2139
2061
2022
2010
1989
1969
1967
1951
1950
1954
1954
1946
1943
1959
1901
1705
1607
1699
2032
2624
3774
4095
3039
2249
1887
1808
1888
1897
1898
1889
1870
1838
1851
1845
1821
1851
1861
1851
1856
1856
1853
1852
1855
1837
1847
1847
1830
1827
1825
1818
1802
1808
1826
1818
1851
1871
1898
1929
1962
1970
2038
2000
2014
2000
1971
1968
1973
1990
1968
1957
1941
1984
1971
1982
1984
1971
2000
1968
1963
1945
1963
1979
1954
1914
1965
1954
1935
1951
1948
1949
1946
1952
1937
1963
1952
1937
1931
1953
1956
1949
1946
1936
1927
1935
1934
1935
1913
1936
1926
1930
1937
1919
1936
2027
2046
2031
2059
2107
2115
2112
2101
2047
2014
1979
1949
1904
1882
1885
1815
1863
1845
1844
1847
1840
1840
1855
1839
1662
1478
1503
1720
2270
3109
4095
3330
2240
1838
1645
1707
1787
1753
1710
1717
1723
1709
1698
1680
1681
1693
1682
1680
1680
1697
1680
1659
1666
1668
1648
1642
1631
1616
1631
1618
1607
1616
1630
1650
1670
1702
1712
1745
1781
1782
1808
1827
1818
1813
1818
1814
1810
1823
1806
1792
1805
1802
1792
1811
1831
1810
1789
1797
1809
1815
1814
1811
1798
1808
1802
1787
1807
1824
1803
1797
1837
1823
1806
1797
1810
1808
1823
1821
1792
1808
1815
1825
1813
1806
1822
1819
1831
1829
1818
1822
1828
1847
1888
1891
1885
1920
1990
1977
1963
1947
1920
1874
1832
1817
1795
1793
1789
1757
1751
1769
1769
1765
1759
1775
1762
1702
1520
1462
1667
2038
2572
3536
3737
2653
2099
1814
1586
1615
1695
1699
1671
1673
1680
1678
1693
1695
1691
1699
1714
1699
1707
1707
1707
1681
1680
1677
1659
1648
1727
1648
1638
1640
1629
1628
1670
1702
1729
1761
1781
1808
1849
1899
1899
1900
1904
1898
1911
1936
1911
1899
1906
1904
1902
1915
1927
1914
1924
1914
1895
1897
1927
1918
1899
1918
1918
1909
1917
1904
1906
1899
1926
1933
1921
1917
1913
1909
1931
1920
1917
1936
1924
1905
1924
1919
1898
1919
1936
1934
1985
2025
2006
2017
2075
2091
2064
2067
2057
1999
1952
1937
1911
1893
1879
1867
1847
1872
1862
1843
1857
1875
1869
1849
1743
1629
1600
1824
2192
2791
4095
3632
2559
2058
1786
1650
1715
1795
1774
1757
1744
1712
1721
1739
1744
1744
1748
1744
1743
1744
1764
1760
1750
1751
1727
1717
1724
1712
1699
1709
1703
1687
1702
1727
1731
1753
1824
1858
1870
1901
1929
1942
1955
1950
1927
1930
1841
1925
1936
1938
1936
1941
1943
1922
1911
1936
1947
1941
1938
1925
1921
1939
1947
1936
1933
1935
1931
1937
1937
1936
1936
1934
1922
1936
1942
1971
1936
1936
1945
1931
1943
1943
1936
1936
1943
1937
1935
1943
1962
1943
1933
1955
1961
1947
1979
1995
2022
2047
2080
2127
2121
2096
2090
2071
2039
1968
1933
1923
1914
1902
1893
1881
1872
1874
1871
1871
1881
1891
1831
1648
1559
1659
1938
2459
3572
4095
3059
2269
1851
1697
1776
1834
1821
1809
1791
1781
1781
1771
1766
1782
1803
1790
1779
1798
1808
1808
1795
1789
1797
1808
1794
1757
1776
1761
1757
1767
1771
1776
1791
1813
1830
1874
1921
1920
1930
1936
1946
1936
1955
1955
1931
1919
1922
1921
1940
1937
1940
1931
1933
1920
1936
1943
1948
1938
1931
1934
1936
1954
1941
1927
1941
1963
1938
1925
1936
1936
1935
1934
1931
1936
1942
1951
1936
1934
1943
1939
1930
1938
1936
1934
1939
1954
1918
1921
1923
1916
1925
1937
1936
1935
1999
2042
2032
2038
2106
2096
2093
2084
2031
1984
1951
1933
1893
1884
1872
1861
1877
1859
1845
1843
1855
1860
1860
1853
1656
1501
1530
1747
2304
3183
4095
3477
2320
1886
1703
1740
1818
1802
1787
1775
1746
1753
1761
1766
1749
1746
1749
1754
1786
1792
1775
1744
1760
1745
1743
1744
1724
1709
1712
1718
1712
1715
1740
1734
1749
1783
1808
1819
1865
1870
1872
1891
1904
1893
1873
1862
1837
1851
1882
1873
1861
1859
1856
1859
1856
1853
1858
1840
1853
1850
1847
1858
1857
1854
1854
1825
1840
1843
1853
1849
1872
1857
1842
1802
1859
1859
1866
1855
1814
1836
1859
1823
1858
1866
1856
1841
1866
1814
1847
1850
1854
1862
1867
1860
1851
1862
1888
1924
1929
1935
1948
1987
2010
2011
2001
1986
1970
1907
1874
1859
1840
1815
1826
1834
1795
1808
1819
1821
1808
1815
1806
1707
1534
1570
1775
2163
2893
4035
3519
2512
1987
1725
1629
1712
1758
1760
1745
1731
1734
1739
1734
1731
1738
1744
1750
1757
1732
1744
1751
1744
1741
1744
1743
1717
1710
1693
1682
1691
1714
1715
1699
1744
1782
1816
1855
1873
1895
1927
1936
1919
1934
1941
1936
1926
1927
1930
1939
1965
1958
1943
1939
1936
1922
1927
1955
1963
1940
1942
1931
1943
1962
1956
1952
1949
1954
1937
1961
1956
1947
1951
1961
1961
1955
1971
1964
1954
1964
1974
1968
1968
1979
1949
1965
2013
2023
2015
2073
2123
2118
2116
2096
2074
2044
2011
1968
1921
1904
1904
1894
1891
1871
1942
1897
1887
1874
1882
1881
1849
1593
1603
1783
2047
2810
3978
3984
2758
2111
1819
1666
1741
1817
1798
1761
1719
1744
1765
1750
1728
1734
1729
1740
1765
1754
1743
1722
1728
1733
1728
1723
1687
1675
1665
1674
1677
1699
1685
1685
1707
1738
1765
1811
1842
1866
1876
1890
1885
1878
1893
1873
1863
1885
1883
1867
1865
1878
1881
1879
1887
1857
1859
1883
1875
1856
1857
1863
1852
1865
1861
1845
1838
1844
1840
1845
1859
1856
1841
1851
1843
1850
1855
1858
1831
1840
1849
1840
1840
1851
1840
1855
1847
1844
1843
1872
1859
1898
1939
1955
1949
2011
2062
2030
2011
2003
1974
1909
1872
1829
1802
1806
1793
1788
1781
1776
1776
1783
1797
1792
1759
1640
1478
1489
1693
2179
2889
4095
3774
2427
1927
1687
1649
1739
1757
1729
1711
1712
1691
1682
1693
1724
1713
1741
1724
1729
1725
1719
1710
1722
1739
1723
1709
1694
1695
1700
1671
1696
1684
1718
1740
1743
1779
1801
1826
1857
1883
1888
1881
1886
1904
1897
1887
1885
1887
1886
1898
1875
1887
1914
1909
1883
1878
1903
1895
1903
1904
1886
1874
1899
1884
1865
1878
1888
1885
1895
1904
1872
1882
1905
1903
1904
1899
1894
1899
1920
1918
1893
1904
1898
1893
1906
1922
1906
1906
1895
1909
1904
1922
1936
1984
2032
2032
2015
2091
2132
2112
2086
2075
2039
1969
1936
1899
1886
1869
1841
1839
1858
1855
1846
1856
1885
1876
1858
1728
1507
1510
1752
2203
3106
4095
3639
2490
1917
1726
1759
1845
1829
1792
1777
1790
1781
1761
1762
1786
1773
1795
1809
1803
1786
1808
1814
1791
1787
1785
1776
1783
1771
1755
1758
1747
1744
1773
1803
1794
1827
1866
1891
1917
1943
1934
1935
1942
1965
1951
1936
1947
1936
1950
1964
1947
1938
1955
1967
1965
1961
1949
1936
1939
1962
1943
1936
1937
1950
1953
1968
1953
1939
1968
1979
1973
1957
1950
1942
1969
1978
1965
1959
1968
1977
1965
1981
1968
1958
1979
1975
1965
1959
1969
1967
1973
1982
1982
2019
2055
2064
2071
2105
2135
2137
2109
2090
2059
2000
1983
1963
1923
1924
1923
1904
1910
1921
1903
1905
1910
1910
1898
1729
1585
1693
1978
2391
3099
4095
3339
2465
2069
1769
1713
1808
1855
1822
1807
1799
1806
1808
1811
1808
1794
1805
1816
1831
1809
1809
1805
1808
1808
1791
1778
1776
1776
1759
1746
1751
1759
1776
1790
1815
1849
1889
1903
1936
1983
2006
1998
1998
2003
2000
2011
2028
2018
2010
2010
2023
2007
2013
2001
1998
2018
2013
1985
1995
2002
2000
2015
2000
1986
2003
2005
1997
1995
2007
2023
1985
1997
1995
2000
2009
2000
1990
2027
2035
2009
1997
2009
2012
2000
2005
2021
2043
2078
2109
2096
2128
2189
2162
2146
2135
2103
2047
2023
2002
1927
1926
1936
1937
1920
1919
1904
1917
1904
1930
1934
1902
1723
1619
1742
2101
2576
3789
4095
3089
2363
1984
1745
1727
1833
1834
1811
1825
1821
1818
1793
1804
1808
1803
1821
1817
1808
1813
1793
1797
1789
1793
1774
1749
1744
1741
1731
1739
1739
1745
1762
1787
1798
1834
1868
1878
1920
1967
1969
1974
1973
1951
1949
1971
1970
1968
1969
1962
1966
1981
1985
1984
1967
1968
1953
1957
1971
1942
1926
1951
1952
1938
1937
1936
1930
1936
1947
1939
1948
1962
1950
1942
1947
1936
1933
1936
1936
1926
1943
1951
1928
1935
1953
1936
1930
1936
1927
1943
1931
1967
2002
2032
2026
2046
2064
2089
2083
2061
2034
1990
1930
1922
1904
1872
1871
1859
1842
1845
1856
1850
1851
1856
1857
1827
1680
1531
1583
1904
2400
3255
4095
3122
2299
1907
1702
1726
1799
1795
1771
1739
1739
1764
1757
1766
1766
1755
1744
1757
1747
1739
1786
1767
1744
1758
1734
1739
1738
1785
1713
1712
1747
1743
1734
1769
1774
1803
1831
1858
1874
1894
1915
1905
1931
1930
1909
1920
1929
1904
1906
1929
1919
1903
1920
1904
1895
1908
1918
1910
1907
1917
1901
1872
1893
1902
1898
1876
1875
1895
1903
1901
1890
1904
1904
1872
1879
1903
1885
1874
1875
1872
1871
1875
1876
1866
1871
1870
1847
1859
1875
1872
1866
1872
1867
1898
1951
1957
1953
1997
2027
2002
1986
1991
1954
1891
1847
1806
1787
1795
1765
1750
1785
1808
1758
1747
1759
1760
1755
1692
1491
1393
1485
1858
2441
3488
4095
2691
1987
1694
1591
1685
1701
1658
1665
1679
1643
1619
1644
1641
1627
1623
1638
1630
1637
1658
1665
1655
1650
1639
1632
1627
1623
1607
1597
1617
1608
1616
1639
1639
1659
1719
1725
1747
1775
1777
1797
1811
1808
1792
1798
1808
1807
1791
1798
1809
1808
1813
1808
1785
1793
1791
1793
1806
1824
1803
1791
1804
1796
1796
1815
1794
1791
1808
1792
1798
1824
1840
1818
1818
1836
1808
1808
1826
1819
1823
1841
1831
1819
1831
1845
1826
1825
1864
1907
1927
1931
1953
1989
2016
1994
1973
1963
1917
1866
1847
1837
1801
1794
1826
1813
1793
1808
1826
1808
1819
1828
1772
1612
1499
1637
1938
2406
3398
4095
3007
2293
1898
1680
1664
1747
1767
1759
1744
1735
1750
1738
1747
1749
1744
1748
1751
1743
1738
1753
1773
1743
1733
1749
1725
1695
1716
1701
1701
1695
1721
1744
1767
1789
1805
1837
1890
1911
1941
1942
1971
1983
1987
1975
1983
1998
1992
1978
1985
1989
2005
1978
2010
1987
1981
1991
1987
1966
1972
1984
1974
1973
1985
1993
1977
1998
1989
1984
1995
1984
1983
1987
2003
1994
2000
2010
1991
1979
2002
2047
2085
2083
2091
2153
2185
2165
2160
2149
2116
2058
1997
1977
1952
1950
1951
1919
1914
1936
1943
1923
1934
1938
1921
1853
1678
1619
1850
2240
2781
3925
4095
2866
2274
1969
1741
1805
1875
1872
1849
1833
1840
1827
1837
1856
1857
1856
1857
1840
1842
1859
1846
1838
1840
1847
1823
1808
1811
1810
1793
1802
1808
1808
1837
1859
1885
1922
1968
2005
2029
2066
2085
2102
2112
2102
2085
2113
2127
2122
2112
2117
2112
2115
2128
2118
2128
2122
2126
2102
2112
2121
2106
2125
2134
2119
2114
2128
2119
2118
2131
2115
2120
2137
2115
2114
2136
2143
2114
2128
2142
2137
2137
2144
2118
2146
2203
2234
2229
2237
2289
2299
2290
2288
2248
2192
2160
2118
2090
2087
2059
2021
2039
2047
2037
2032
2032
2027
2032
2028
1869
1711
1754
1936
2448
3270
4095
4000
2630
2146
1899
1867
1950
1947
1936
1940
1926
1913
1915
1914
1911
1920
1906
1911
1923
1910
1919
1914
1913
1910
1899
1906
1876
1870
1879
1867
1846
1860
1888
1899
1913
1949
1946
1970
2034
2058
2040
2042
2034
2046
2064
2064
2039
2053
2062
2037
2032
2038
2027
2017
2017
2032
2010
2013
2021
2014
2002
2000
1986
1985
1994
1981
1975
1979
1977
1966
1974
1985
1973
1967
1965
1954
1936
1936
1941
1946
1949
1936
1973
2032
2055
2043
2090
2116
2109
2095
2053
2057
2011
1967
1886
1866
1872
1866
1779
1839
1837
1823
1830
1836
1826
1827
1771
1569
1434
1527
1881
2403
3426
4095
2877
2111
1781
1662
1748
1773
1744
1727
1719
1707
1698
1699
1707
1691
1689
1712
1712
1712
1712
1695
1697
1704
1685
1661
1657
1665
1584
1634
1633
1628
1694
1653
1666
1686
1730
1744
1761
1811
1838
1841
1825
1830
1840
1839
1818
1782
1808
1828
1806
1807
1811
1799
1793
1779
1795
1806
1791
1789
1781
1774
1791
1770
1762
1769
1785
1782
1794
1784
1762
1763
1792
1780
1780
1789
1763
1757
1772
1751
1762
1774
1773
1760
1764
1766
1797
1856
1859
1849
1901
1929
1898
1922
1918
1878
1821
1770
1754
1729
1710
1695
1686
1698
1712
1669
1673
1691
1677
1681
1634
1456
1391
1489
1905
2416
3325
3878
2617
2020
1717
1520
1557
1627
1628
1600
1596
1603
1604
1616
1620
1599
1595
1639
1648
1623
1616
1619
1613
1607
1612
1583
1571
1568
1548
1574
1579
1571
1577
1600
1619
1643
1678
1711
1728
1771
1808
1826
1829
1839
1859
1849
1854
1845
1824
1835
1862
1871
1872
1862
1842
1840
1840
1826
1855
1872
1842
1840
1871
1872
1856
1855
1858
1849
1863
1877
1869
1854
1881
1901
1872
1872
1885
1878
1878
1900
1935
1965
1955
1962
2033
2064
2028
2043
2041
2000
1935
1904
1872
1854
1850
1834
1803
1810
1837
1818
1808
1826
1839
1834
1761
1593
1526
1721
2083
2606
3800
4038
2816
2205
1865
1654
1666
1749
1763
1746
1733
1727
1708
1712
1723
1728
1731
1749
1738
1729
1738
1713
1696
1712
1703
1687
1705
1694
1633
1643
1655
1667
1679
1680
1687
1728
1776
1826
1854
1882
1910
1906
1938
1962
1954
1949
1966
1953
1943
1952
1954
1940
1969
1968
1936
1935
1925
1936
1963
1963
1950
1919
1918
1916
1921
1931
1954
1942
1939
1937
1920
1947
1963
1933
1923
1941
1919
1899
1936
1957
1946
1963
1944
1925
1980
2032
2037
2020
2074
2112
2106
2112
2087
2047
2000
1968
1936
1919
1913
1871
1867
1883
1884
1969
1872
1863
1870
1875
1856
1709
1541
1650
1868
2323
3081
4095
3495
2499
1982
1747
1725
1809
1805
1776
1785
1779
1777
1808
1783
1773
1780
1783
1785
1786
1782
1777
1776
1779
1765
1771
1776
1763
1746
1738
1735
1744
1744
1743
1765
1785
1809
1849
1874
1927
1936
1946
1974
1955
1958
1971
1963
1965
1968
1963
1947
1942
1986
1957
1963
1984
1979
1968
1970
1968
1965
1969
1979
1949
1957
1969
1946
1954
1968
1981
1982
1974
1965
1963
1972
1971
1958
1975
1986
1985
1973
1974
1963
1965
1983
1970
1966
1978
1973
1963
2021
2077
2071
2064
2144
2175
2151
2117
2112
2099
2058
2007
1926
1903
1903
1902
1899
1895
1883
1866
1885
1885
1882
1895
1808
1615
1523
1623
2021
2646
3942
4095
2917
2186
1840
1745
1856
1868
1831
1826
1807
1792
1808
1808
1814
1813
1827
1808
1802
1837
1840
1859
1858
1855
1855
1856
1845
1821
1808
1835
1823
1818
1840
1844
1851
1875
1889
1904
1939
1952
1968
1975
1981
1967
1954
1966
1961
1963
1964
1962
1939
1962
1943
1936
1943
1954
1935
1936
1934
1926
1922
1943
1927
1926
1933
1920
1917
1937
1936
1920
1929
1931
1904
1900
1907
1921
1920
1919
1914
1909
1910
1906
1904
1911
1926
1915
1899
1904
1904
1893
1910
1894
1883
1903
1913
1907
1970
2010
1994
1997
2064
2067
2053
2038
1999
1955
1920
1894
1859
1839
1829
1826
1818
1818
1808
1813
1829
1826
1799
1808
1666
1474
1498
1727
2171
2923
4095
3427
2401
1923
1663
1696
1779
1771
1728
1714
1694
1691
1703
1700
1693
1705
1719
1712
1718
1725
1699
1690
1713
1702
1679
1664
1646
1645
1664
1664
1669
1680
1681
1680
1703
1730
1777
1799
1811
1837
1861
1872
1887
1861
1845
1876
1884
1872
1894
1871
1872
1894
1902
1886
1875
1885
1874
1870
1891
1891
1882
1891
1904
1874
1886
1890
1882
1879
1898
1911
1917
1929
1919
1921
1911
1904
1907
1943
1936
1926
1915
1931
1911
1909
1931
1921
1925
1926
1907
1917
1914
1915
1964
2000
2027
1998
2019
2064
2064
2067
2083
2039
2014
1979
1946
1927
1905
1904
1898
1885
1873
1870
1887
1896
1872
1875
1857
1715
1555
1618
1936
2371
3127
4095
3291
2443
2064
1783
1674
1778
1813
1786
1776
1770
1773
1776
1776
1775
1787
1806
1792
1779
1781
1782
1781
1776
1766
1741
1743
1718
1713
1728
1733
1738
1746
1762
1737
1765
1801
1849
1874
1907
1936
1936
1961
1967
1953
1953
1983
1978
1968
1968
1951
1947
1974
1994
1968
1953
1957
1935
1941
1957
1938
1937
1943
1942
1937
1938
1926
1928
1945
1938
1936
1934
1942
1933
1920
1923
1915
1923
1936
1923
1909
1918
1911
1905
1921
1935
1924
1907
1914
1907
1919
1924
1919
1906
1933
1977
1993
1990
1988
2007
2035
2055
2019
2000
2000
1962
1904
1889
1871
1847
1841
1856
1835
1825
1847
1838
1837
1856
1828
1682
1535
1579
1861
2306
3010
4095
3287
2420
1985
1728
1667
1738
1762
1775
1741
1727
1734
1722
1734
1745
1743
1742
1761
1759
1747
1733
1758
1744
1730
1724
1711
1695
1674
1702
1696
1701
1701
1691
1723
1747
1775
1798
1826
1854
1872
1904
1914
1913
1918
1957
1936
1905
1920
1935
1929
1926
1907
1889
1920
1941
1936
1914
1927
1907
1891
1897
1890
1890
1904
1904
1910
1920
1923
1919
1916
1916
1894
1879
1931
1933
1913
1899
1915
1914
1909
1907
1905
1920
1917
1921
1921
1920
1901
1897
1915
1911
1909
1920
1887
1946
1983
2001
2007
2029
2069
2046
2062
2034
1991
1937
1904
1904
1872
1862
1872
1850
1849
1840
1846
1856
1858
1839
1838
1744
1568
1531
1777
2191
2813
3961
3600
2547
2060
1786
1650
1757
1805
1780
1761
1747
1742
1730
1749
1758
1741
1762
1771
1751
1758
1754
1744
1741
1759
1755
1726
1703
1708
1710
1711
1727
1714
1717
1738
1745
1775
1805
1822
1840
1877
1914
1904
1905
1931
1917
1914
1925
1906
1790
1902
1892
1914
1932
1919
1874
1889
1935
1902
1879
1911
1906
1901
1902
1902
1890
1882
1879
1885
1889
1872
1895
1897
1920
1898
1900
1905
1884
1875
1906
1904
1899
1903
1901
1883
1903
1922
1901
1886
1905
1903
1889
1904
1901
1920
1933
1908
1909
1904
1953
1965
1975
2000
2035
2063
2055
2064
2032
2010
1968
1920
1911
1898
1891
1874
1877
1863
1876
1894
1872
1889
1897
1893
1773
1600
1615
1827
2242
2955
4095
3536
2529
2055
1795
1767
1794
1859
1870
1849
1822
1860
1840
1838
1856
1857
1846
1851
1873
1877
1871
1872
1859
1851
1856
1863
1849
1847
1851
1857
1861
1863
1877
1902
1904
1917
1958
1989
2012
2032
2064
2077
2074
2067
2090
2074
2062
2064
2076
2082
2078
2096
2076
2066
2064
2080
2070
2084
2064
2067
2083
2071
2066
2062
2070
2079
2095
2093
2069
2071
2075
2074
2091
2102
2087
2074
2074
2075
2069
2078
2071
2067
2093
2098
2081
2059
2065
2069
2083
2091
2088
2084
2080
2064
2059
2064
2078
2064
2061
2067
2076
2064
2069
2073
2073
2063
2069
2108
2151
2150
2149
2171
2217
2201
2182
2173
2122
2046
2037
2036
2006
1983
1983
1994
1981
1978
1968
1973
1984
1982
1930
1764
1655
1738
2027
2555
3521
4095
3105
2330
1969
1798
1860
1906
1891
1861
1861
1877
1874
1839
1840
1842
1834
1852
1845
1839
1847
1867
1835
1822
1837
1826
1744
1813
1808
1790
1796
1818
1818
1823
1838
1841
1859
1913
1931
1939
1949
1966
1954
1953
1954
1934
1939
1940
1959
1935
1943
1937
1926
1950
1953
1946
1919
1920
1908
1918
1921
1916
1905
1915
1877
1885
1921
1924
1904
1904
1913
1901
1889
1894
1879
1873
1883
1879
1879
1898
1893
1893
1891
1888
1859
1876
1898
1883
1859
1872
1869
1860
1882
1872
1857
1872
1858
1840
1841
1854
1840
1822
1838
1830
1847
1834
1819
1808
1810
1845
1886
1906
1910
1905
1945
1968
1963
1927
1903
1851
1795
1775
1755
1742
1745
1827
1714
1709
1723
1718
1711
1712
1711
1603
1437
1394
1499
1910
2503
3522
3761
2487
1899
1623
1578
1648
1649
1634
1623
1616
1612
1619
1599
1585
1606
1604
1610
1616
1615
1602
1615
1606
1604
1610
1603
1585
1584
1571
1570
1584
1599
1584
1597
1631
1653
1665
1680
1721
1738
1754
1786
1789
1763
1747
1755
1757
1782
1777
1765
1776
1781
1717
1769
1781
1769
1754
1747
1767
1766
1773
1766
1789
1787
1763
1754
1786
1793
1790
1778
1776
1785
1790
1799
1794
1780
1792
1791
1803
1797
1795
1792
1794
1823
1808
1808
1814
1802
1797
1821
1815
1807
1808
1811
1808
1815
1838
1822
1856
1902
1891
1886
1935
1969
1965
1963
1942
1889
1872
1859
1821
1801
1808
1793
1788
1792
1775
1771
1798
1797
1789
1776
1677
1472
1520
1758
2202
2831
3891
3536
2451
2025
1743
1584
1685
1712
1712
1702
1719
1686
1691
1710
1746
1693
1713
1718
1716
1776
1714
1714
1691
1713
1691
1689
1703
1684
1674
1665
1665
1696
1711
1707
1739
1763
1789
1829
1856
1883
1872
1905
1946
1931
1904
1923
1936
1931
1922
1926
1922
1939
1942
1926
1923
1936
1936
1934
1936
1934
1920
1919
1936
1940
1924
1938
1930
1933
1936
1931
1936
1943
1947
1932
1946
1942
1938
1936
1955
1951
1953
1959
1936
1940
1936
1936
1955
1953
1956
1941
1942
1947
1953
1998
2019
