-2.913718551458727157e-02
-1.748231130875238515e-02
2.913718551458727157e-02
-5.827437102917498724e-03
0.000000000000000000e+00
0.000000000000000000e+00
0.000000000000000000e+00
-1.748231130875238515e-02
-5.244693392625709993e-02
-1.748231130875238515e-02
-1.748231130875238515e-02
-2.913718551458732708e-02
-1.165487420583488642e-02
-2.330974841166982836e-02
-2.913718551458727157e-02
-5.827437102917443212e-03
5.827437102917443212e-03
1.165487420583494194e-02
-5.827437102917443212e-03
-5.827437102917443212e-03
-2.913718551458727157e-02
-4.661949682333960121e-02
-4.661949682333960121e-02
-1.748231130875238515e-02
-4.661949682333960121e-02
0.000000000000000000e+00
4.661949682333965672e-02
1.165487420583494194e-02
3.496462261750477030e-02
1.223761791612665850e-01
9.906643074959675666e-02
-2.039602986021110120e-01
-4.137480343071394118e-01
-1.666647011434392534e+00
-2.971992922487902700e+00
-2.336802278269900057e+00
7.459119491734345075e-01
5.670096301138685568e+00
5.774990168991199546e+00
4.382232701393927066e+00
2.639829007621607992e+00
3.321639148662950403e-01
-6.468455184238377509e-01
-7.867040088938566100e-01
-5.769162731888282103e-01
-3.263364777633775415e-01
-1.456859275729364689e-01
-8.741155654376181472e-02
-1.223761791612665850e-01
-7.575668233792692829e-02
-9.906643074959681217e-02
1.165487420583494194e-02
5.244693392625709993e-02
8.158411944084437151e-02
1.165487420583494194e-02
1.748231130875238515e-02
9.323899364667931344e-02
1.165487420583494194e-02
1.748231130875238515e-02
5.827437102917443212e-03
-1.165487420583494194e-02
-8.158411944084442702e-02
-8.741155654376187023e-02
-5.244693392625709993e-02
-6.410180813209209738e-02
-9.323899364667931344e-02
-1.864779872933586269e-01
-1.864779872933586269e-01
-2.214426099108633972e-01
-1.923054243962760701e-01
-1.631682388816888540e-01
-6.992924523500954059e-02
-1.165487420583494194e-02
-2.330974841166982836e-02
0.000000000000000000e+00
0.000000000000000000e+00
0.000000000000000000e+00
0.000000000000000000e+00
0.000000000000000000e+00
5.244693392625711381e-02
9.323899364667931344e-02
2.330974841166982836e-02
-1.748231130875237127e-02
4.661949682333965672e-02
2.330974841166982489e-02
0.000000000000000000e+00
-1.748231130875237127e-02
5.827437102917456223e-03
-4.079205972042219963e-02
-3.496462261750474254e-02
1.748231130875237127e-02
-3.496462261750474254e-02
-7.575668233792694217e-02
0.000000000000000000e+00
1.165487420583491071e-02
-2.330974841166982836e-02
7.575668233792694217e-02
8.741155654376185635e-02
1.165487420583491279e-01
6.410180813209202799e-02
6.992924523500948508e-02
2.330974841166982489e-02
5.244693392625711381e-02
1.282036162641840282e-01
1.282036162641840282e-01
5.827437102917457090e-02
2.913718551458728198e-02
3.496462261750474254e-02
5.244693392625711381e-02
3.496462261750474254e-02
5.244693392625711381e-02
3.496462261750474254e-02
8.158411944084439926e-02
1.282036162641840282e-01
1.165487420583491071e-02
-4.661949682333964978e-02
-4.079205972042219269e-02
3.496462261750474254e-02
4.661949682333965672e-02
4.079205972042219963e-02
-5.827437102917453621e-03
-4.661949682333964978e-02
5.827437102917457090e-03
1.165487420583491418e-02
-2.913718551458728198e-02
1.165487420583491418e-02
4.661949682333965672e-02
2.330974841166982836e-02
-2.913718551458728198e-02
-5.827437102917456396e-02
-5.244693392625710687e-02
-4.079205972042219269e-02
2.330974841166982836e-02
-5.827437102917457090e-03
5.827437102917457090e-03
-1.165487420583491071e-02
-1.165487420583491071e-02
-4.661949682333964978e-02
-6.410180813209201411e-02
-4.079205972042219269e-02
4.079205972042219963e-02
-2.330974841166982489e-02
0.000000000000000000e+00
3.496462261750474254e-02
2.330974841166982836e-02
-4.661949682333964978e-02
-8.158411944084439926e-02
-3.496462261750473560e-02
6.410180813209202799e-02
5.827437102917457090e-02
-2.913718551458728545e-02
6.992924523500948508e-02
4.661949682333965672e-02
-1.748231130875237127e-02
6.410180813209202799e-02
1.282036162641840282e-01
6.410180813209202799e-02
-2.913718551458728545e-02
-2.505797954254506132e-01
-2.564072325283681120e-01
-2.097877357050284552e-01
-1.456859275729364134e-01
-1.340310533671014992e-01
-6.992924523500948508e-02
-2.330974841166982836e-02
1.398584904700189424e-01
1.573408017787713276e-01
1.282036162641840560e-01
1.340310533671014992e-01
6.410180813209202799e-02
1.282036162641840560e-01
1.748231130875237127e-01
1.573408017787713276e-01
1.398584904700189424e-01
1.923054243962760701e-01
-1.748231130875237127e-02
-2.097877357050284552e-01
-9.790094332901327912e-01
-2.534935139769093571e+00
-2.307665092755312841e+00
-1.282036162641840560e-01
5.110662339258609244e+00
6.316941819562523541e+00
5.145626961876113903e+00
3.438187890721299489e+00
9.207350622609581370e-01
-3.904382858954696389e-01
-8.333235057171963778e-01
-7.051198894530122940e-01
-4.778498424392314536e-01
-2.913718551458728268e-01
-2.272700470137808126e-01
-1.515133646758538843e-01
-9.906643074959675666e-02
-8.158411944084438538e-02
-5.827437102917457090e-02
-1.748231130875237127e-02
-1.748231130875237127e-02
-4.079205972042219963e-02
-2.330974841166982489e-02
-3.496462261750474254e-02
-1.165487420583491279e-01
-9.323899364667929957e-02
-1.573408017787713553e-01
-1.282036162641840560e-01
-2.389249212196157268e-01
-2.272700470137808126e-01
-2.797169809400379403e-01
-3.496462261750474254e-01
-3.787834116896346970e-01
-3.904382858954696389e-01
-4.545400940275616253e-01
-4.079205972042219686e-01
-4.312303456158917969e-01
-4.836772795421488969e-01
-4.195754714100569105e-01
-3.321639148662950403e-01
-2.564072325283681120e-01
-3.379913519692124835e-01
-1.107213049554316708e-01
0.000000000000000000e+00
0.000000000000000000e+00
0.000000000000000000e+00
1.748231130875238515e-02
6.992924523500948508e-02
1.515133646758539121e-01
1.923054243962760701e-01
1.748231130875236849e-01
4.661949682333965672e-02
8.741155654376187023e-02
1.223761791612665850e-01
8.741155654376187023e-02
1.223761791612665850e-01
1.165487420583491418e-01
7.575668233792692829e-02
6.992924523500948508e-02
9.906643074959675666e-02
1.748231130875236849e-01
9.906643074959675666e-02
1.515133646758539121e-01
1.631682388816887985e-01
1.923054243962760701e-01
9.906643074959675666e-02
1.048938678525142554e-01
1.515133646758539121e-01
2.389249212196157268e-01
1.923054243962760701e-01
1.515133646758539121e-01
1.223761791612665850e-01
1.456859275729364134e-01
1.223761791612665850e-01
1.223761791612665850e-01
1.048938678525142554e-01
8.741155654376187023e-02
6.992924523500948508e-02
1.223761791612665850e-01
8.741155654376187023e-02
6.992924523500948508e-02
5.244693392625712769e-02
7.575668233792692829e-02
2.330974841166982836e-02
5.244693392625712769e-02
8.741155654376187023e-02
-5.827437102917443212e-03
-4.079205972042218575e-02
1.165487420583491418e-02
1.165487420583491418e-02
2.330974841166982836e-02
-1.165487420583491418e-02
-3.496462261750474254e-02
1.748231130875238515e-02
-1.165487420583491418e-02
1.748231130875238515e-02
2.330974841166982836e-02
2.913718551458727157e-02
-6.992924523500948508e-02
-4.661949682333965672e-02
-2.330974841166982836e-02
-5.827437102917470968e-03
-6.410180813209202799e-02
1.748231130875235739e-02
5.827437102917470968e-03
0.000000000000000000e+00
-3.496462261750472866e-02
-5.827437102917443212e-03
-4.079205972042219963e-02
-2.330974841166982836e-02
-1.748231130875235739e-02
-2.913718551458727157e-02
7.575668233792695605e-02
4.661949682333964284e-02
2.330974841166981448e-02
6.410180813209202799e-02
6.410180813209202799e-02
6.410180813209201411e-02
1.748231130875235739e-02
-1.631682388816887985e-01
-2.330974841166982836e-01
-2.214426099108633417e-01
-1.340310533671014992e-01
-1.573408017787713276e-01
-2.505797954254506132e-01
-1.631682388816887985e-01
-3.496462261750474254e-02
0.000000000000000000e+00
4.661949682333965672e-02
9.323899364667931344e-02
2.913718551458727157e-02
3.496462261750474254e-02
2.330974841166982836e-02
1.748231130875237127e-02
8.741155654376184247e-02
1.573408017787713276e-01
-5.827437102917457090e-02
-3.729559745867172538e-01
-6.235357700121679780e-01
-2.418386397710744262e+00
-3.106023975855004338e+00
-1.421894653111859474e+00
3.315811711560033181e+00
6.450972872929624735e+00
4.906702040656498731e+00
3.036094730619995019e+00
8.799430025405359235e-01
-5.710888360859107671e-01
-8.566332541288661506e-01
-7.167747636588472915e-01
-4.953321537479838388e-01
-2.738895438371204971e-01
-1.923054243962760701e-01
-1.806505501904411559e-01
-1.806505501904411559e-01
-1.340310533671014992e-01
-1.689956759846062417e-01
-1.282036162641840560e-01
-5.244693392625711381e-02
-8.741155654376185635e-02
-8.741155654376185635e-02
-9.906643074959675666e-02
-9.323899364667931344e-02
-1.048938678525142276e-01
-1.107213049554316708e-01
-1.107213049554316708e-01
-1.223761791612665850e-01
-1.689956759846062417e-01
-2.272700470137808126e-01
-2.622346696312855552e-01
-2.505797954254506132e-01
-2.505797954254506132e-01
-5.827437102917457090e-03
-3.671285374837997550e-01
-2.913718551458728268e-01
-2.505797954254506132e-01
-2.505797954254506132e-01
-1.981328614991935133e-01
-1.864779872933586269e-01
-1.689956759846062417e-01
-6.410180813209202799e-02
0.000000000000000000e+00
4.661949682333965672e-02
1.282036162641840560e-01
1.223761791612666128e-01
5.827437102917457090e-02
1.223761791612666128e-01
1.631682388816888263e-01
1.515133646758538843e-01
1.573408017787713276e-01
1.340310533671014992e-01
1.048938678525142276e-01
1.107213049554316708e-01
1.048938678525142276e-01
5.827437102917457090e-02
1.107213049554316708e-01
9.323899364667931344e-02
6.410180813209204187e-02
3.496462261750474254e-02
9.323899364667931344e-02
5.827437102917457090e-02
5.827437102917457090e-02
1.107213049554316708e-01
1.107213049554316708e-01
3.438187890721299267e-01
3.613011003808822563e-01
6.992924523500948508e-02
1.864779872933586546e-01
9.906643074959678441e-02
1.223761791612666128e-01
1.223761791612666128e-01
8.158411944084439926e-02
1.165487420583491696e-01
1.048938678525142276e-01
8.741155654376187023e-02
8.158411944084439926e-02
1.165487420583491696e-01
1.107213049554316708e-01
1.165487420583491696e-01
6.410180813209204187e-02
9.323899364667931344e-02
1.048938678525142276e-01
8.158411944084439926e-02
4.079205972042221351e-02
0.000000000000000000e+00
1.165487420583491418e-02
-4.661949682333964284e-02
-3.496462261750472866e-02
8.158411944084439926e-02
3.496462261750474254e-02
0.000000000000000000e+00
1.748231130875235739e-02
-4.079205972042219963e-02
0.000000000000000000e+00
2.913718551458728545e-02
4.079205972042218575e-02
2.330974841166982836e-02
-1.165487420583491418e-02
-1.165487420583491418e-02
-2.330974841166982836e-02
1.165487420583491418e-02
2.330974841166982836e-02
1.165487420583491418e-02
0.000000000000000000e+00
1.165487420583491418e-02
-6.410180813209202799e-02
-7.575668233792694217e-02
-5.827437102917457090e-02
-4.079205972042219963e-02
-3.496462261750474254e-02
0.000000000000000000e+00
3.496462261750474254e-02
-1.748231130875237127e-02
-2.330974841166982836e-02
5.244693392625711381e-02
-5.827437102917457090e-03
7.575668233792694217e-02
1.107213049554316847e-01
8.158411944084439926e-02
-5.827437102917457090e-03
-2.214426099108633694e-01
-2.855444180429553835e-01
-2.330974841166982836e-01
-2.447523583225331700e-01
-1.923054243962760701e-01
-1.981328614991935133e-01
-6.992924523500948508e-02
-4.661949682333964978e-02
4.661949682333965672e-02
4.661949682333965672e-02
5.827437102917457090e-02
-2.330974841166982142e-02
1.165487420583491418e-02
3.496462261750473560e-02
5.827437102917456396e-02
2.330974841166982142e-02
8.158411944084438538e-02
5.827437102917457090e-03
-3.088541664546252674e-01
-4.836772795421488969e-01
-2.435868709019497036e+00
-3.379913519692125057e+00
-2.325147404064065615e+00
1.847297561624833717e+00
6.212047951710008675e+00
5.250520829728628769e+00
3.461497639132969262e+00
1.480169024141034129e+00
-4.195754714100569105e-01
-8.158411944084439371e-01
-6.934650152471772966e-01
-5.361242134684059968e-01
-3.146816035575427106e-01
-2.272700470137808126e-01
-2.156151728079459262e-01
-2.214426099108633694e-01
-2.097877357050284275e-01
-1.282036162641840560e-01
-1.282036162641840560e-01
-1.223761791612665850e-01
-1.573408017787713276e-01
-1.923054243962760979e-01
-1.806505501904411559e-01
-1.398584904700189702e-01
-1.689956759846062417e-01
-1.048938678525142276e-01
-1.398584904700189702e-01
-2.156151728079459262e-01
-2.447523583225331978e-01
-2.564072325283680565e-01
-3.205090406604601538e-01
-2.971992922487902700e-01
-3.263364777633775971e-01
-4.079205972042220241e-01
-4.428852198217266833e-01
-4.137480343071394673e-01
-3.787834116896346970e-01
-2.797169809400379403e-01
-2.505797954254506132e-01
-1.981328614991935411e-01
-1.282036162641840560e-01
-4.079205972042219963e-02
1.748231130875237127e-02
6.992924523500947120e-02
1.340310533671014992e-01
8.158411944084438538e-02
5.244693392625710687e-02
5.244693392625710687e-02
1.573408017787713276e-01
9.323899364667929957e-02
1.107213049554316708e-01
1.048938678525142137e-01
6.410180813209201411e-02
1.748231130875237127e-02
7.575668233792692829e-02
6.410180813209201411e-02
2.913718551458727851e-02
5.244693392625710687e-02
1.748231130875237127e-02
2.913718551458727851e-02
6.992924523500947120e-02
8.741155654376184247e-02
6.410180813209201411e-02
4.661949682333964978e-02
5.827437102917456396e-02
6.992924523500947120e-02
6.410180813209201411e-02
8.741155654376184247e-02
1.107213049554316708e-01
8.741155654376184247e-02
8.741155654376184247e-02
7.575668233792692829e-02
9.323899364667929957e-02
1.107213049554316708e-01
1.048938678525142137e-01
9.906643074959675666e-02
1.748231130875236849e-01
1.573408017787713276e-01
1.165487420583491279e-01
9.906643074959675666e-02
1.107213049554316708e-01
9.906643074959675666e-02
3.496462261750473560e-02
5.827437102917456396e-02
5.827437102917456396e-02
3.496462261750473560e-02
0.000000000000000000e+00
-2.913718551458728545e-02
-2.330974841166982836e-02
-2.330974841166982836e-02
-2.330974841166982836e-02
3.496462261750474254e-02
0.000000000000000000e+00
0.000000000000000000e+00
-2.505797954254506132e-01
-3.496462261750475642e-02
-1.573408017787712998e-01
-1.165487420583491418e-02
-1.223761791612665850e-01
2.971992922487902700e-01
2.913718551458728268e-01
-1.748231130875237127e-02
1.165487420583491418e-02
-9.323899364667931344e-02
-1.515133646758538566e-01
6.992924523500948508e-02
-3.496462261750474254e-02
0.000000000000000000e+00
2.913718551458728545e-02
-1.165487420583491418e-02
0.000000000000000000e+00
0.000000000000000000e+00
-2.913718551458729933e-02
-4.661949682333965672e-02
-5.827437102917470968e-03
3.496462261750474254e-02
2.330974841166984224e-02
2.913718551458729933e-02
-4.079205972042218575e-02
0.000000000000000000e+00
-6.992924523500945733e-02
-5.827437102917454315e-02
5.827437102917470968e-03
4.079205972042221351e-02
5.827437102917458478e-02
9.906643074959675666e-02
4.079205972042219963e-02
-2.330974841166982836e-02
-2.738895438371204971e-01
-2.505797954254506132e-01
-2.389249212196157546e-01
-2.097877357050284275e-01
-2.564072325283680565e-01
-2.272700470137808126e-01
-1.864779872933585991e-01
4.661949682333965672e-02
4.079205972042219963e-02
6.410180813209202799e-02
1.165487420583491418e-02
0.000000000000000000e+00
1.165487420583491418e-02
6.410180813209202799e-02
6.410180813209202799e-02
6.992924523500948508e-02
6.410180813209202799e-02
-1.223761791612666128e-01
-3.729559745867172538e-01
-9.207350622609582480e-01
-3.071059353237499678e+00
-3.158470909781261327e+00
-1.002319181701802453e+00
4.201582151203486326e+00
6.048879712828319377e+00
4.487126569246441044e+00
2.773860060988709630e+00
6.235357700121678670e-01
-7.167747636588471805e-01
-8.274960686142788235e-01
-6.701552668355075237e-01
-3.787834116896346970e-01
-2.797169809400379403e-01
-2.039602986021109843e-01
-2.097877357050284275e-01
-1.515133646758538843e-01
-1.806505501904411559e-01
-1.340310533671014992e-01
-1.631682388816887708e-01
-1.340310533671014992e-01
-1.223761791612666128e-01
-6.992924523500948508e-02
-9.323899364667928569e-02
-1.165487420583491140e-01
-1.398584904700189424e-01
-1.748231130875237127e-01
-2.097877357050284275e-01
-2.272700470137808126e-01
-1.748231130875237127e-01
-1.515133646758538843e-01
-2.447523583225331978e-01
-3.146816035575427106e-01
-3.146816035575427106e-01
-3.379913519692124835e-01
-3.613011003808822563e-01
-3.496462261750473699e-01
-3.787834116896346970e-01
-3.088541664546251564e-01
-2.214426099108633694e-01
-1.748231130875237127e-01
-1.048938678525142276e-01
-2.913718551458727157e-02
0.000000000000000000e+00
1.165487420583491418e-02
2.913718551458728545e-02
8.158411944084439926e-02
8.158411944084439926e-02
1.048938678525142276e-01
5.827437102917457090e-02
6.410180813209202799e-02
1.748231130875236849e-01
1.282036162641840560e-01
4.661949682333965672e-02
4.661949682333965672e-02
6.410180813209202799e-02
4.079205972042219963e-02
2.913718551458728545e-02
2.913718551458728545e-02
2.913718551458728545e-02
2.913718551458728545e-02
4.079205972042219963e-02
4.079205972042219963e-02
2.913718551458728545e-02
8.741155654376184247e-02
8.158411944084439926e-02
6.992924523500948508e-02
8.158411944084439926e-02
1.165487420583491418e-01
9.323899364667931344e-02
1.165487420583491418e-01
6.992924523500948508e-02
6.992924523500948508e-02
4.661949682333965672e-02
4.661949682333965672e-02
2.913718551458728545e-02
3.496462261750474254e-02
8.741155654376184247e-02
4.661949682333965672e-02
2.913718551458728545e-02
2.913718551458728545e-02
0.000000000000000000e+00
-6.992924523500948508e-02
0.000000000000000000e+00
-3.496462261750474254e-02
1.165487420583491418e-02
2.913718551458728545e-02
-2.330974841166982836e-02
-5.827437102917457090e-02
0.000000000000000000e+00
-3.496462261750474254e-02
-5.827437102917470968e-03
5.827437102917443212e-03
3.496462261750475642e-02
0.000000000000000000e+00
1.165487420583491418e-02
5.244693392625711381e-02
-3.496462261750474254e-02
0.000000000000000000e+00
1.165487420583491418e-02
-1.165487420583491418e-02
9.323899364667931344e-02
-1.165487420583491418e-02
1.165487420583491418e-02
-1.748231130875235739e-02
1.748231130875238515e-02
-1.107213049554316708e-01
3.496462261750474254e-02
-4.079205972042218575e-02
-1.165487420583491418e-02
-5.827437102917470968e-03
5.244693392625709993e-02
1.748231130875235739e-02
1.165487420583488642e-02
-4.661949682333965672e-02
-2.330974841166982836e-02
-1.748231130875238515e-02
-3.496462261750474254e-02
-1.165487420583491418e-02
-1.748231130875235739e-02
-2.330974841166982836e-02
0.000000000000000000e+00
-1.165487420583491418e-02
-5.244693392625709993e-02
6.410180813209201411e-02
1.165487420583491418e-01
1.398584904700189702e-01
9.906643074959677053e-02
6.992924523500948508e-02
-2.097877357050284552e-01
-2.797169809400379403e-01
-1.806505501904411837e-01
-1.165487420583491418e-01
-1.631682388816887985e-01
-1.864779872933586269e-01
-8.158411944084442702e-02
4.079205972042218575e-02
7.575668233792692829e-02
7.575668233792692829e-02
7.575668233792692829e-02
0.000000000000000000e+00
2.913718551458729933e-02
2.913718551458729933e-02
-4.661949682333962897e-02
3.496462261750474254e-02
2.330974841166982836e-02
-1.398584904700189424e-01
-4.778498424392314536e-01
-6.643278297325900805e-01
-2.762205186782874744e+00
-3.245882466325023419e+00
-1.794850627698576950e+00
2.814652120709131733e+00
6.223702825915844450e+00
4.900874603553581288e+00
3.263364777633775748e+00
1.247071540024335734e+00
-4.428852198217266833e-01
-8.216686315113613803e-01
-7.342570749675995101e-01
-4.778498424392314536e-01
-3.146816035575425996e-01
-2.680621067342030539e-01
-1.981328614991935411e-01
-1.515133646758538843e-01
-1.631682388816887708e-01
-1.398584904700189424e-01
-1.165487420583491140e-01
-1.631682388816887708e-01
-1.631682388816887708e-01
-1.748231130875237127e-01
-1.689956759846062695e-01
-1.223761791612666128e-01
-1.165487420583491140e-01
-1.048938678525142276e-01
-1.573408017787713276e-01
-1.864779872933585991e-01
-1.573408017787713276e-01
-1.748231130875237127e-01
-2.680621067342030539e-01
-2.622346696312854997e-01
-2.855444180429553835e-01
-3.205090406604600428e-01
-3.904382858954695834e-01
-4.079205972042219130e-01
-3.846108487925521402e-01
-2.680621067342029984e-01
-1.806505501904411837e-01
-1.107213049554316986e-01
0.000000000000000000e+00
0.000000000000000000e+00
0.000000000000000000e+00
0.000000000000000000e+00
0.000000000000000000e+00
1.165487420583491418e-02
3.496462261750474254e-02
7.575668233792694217e-02
4.661949682333965672e-02
1.165487420583491418e-02
0.000000000000000000e+00
0.000000000000000000e+00
-1.165487420583491418e-02
5.827437102917457090e-03
-2.913718551458728545e-02
-6.410180813209202799e-02
-5.827437102917457090e-03
-5.827437102917457090e-03
-3.496462261750474254e-02
-2.913718551458728545e-02
1.748231130875235739e-02
1.165487420583491418e-02
-2.330974841166981448e-02
2.330974841166982836e-02
6.992924523500948508e-02
1.107213049554316708e-01
1.398584904700189979e-01
8.741155654376187023e-02
5.827437102917457090e-02
1.048938678525142276e-01
1.340310533671014992e-01
1.048938678525142276e-01
9.323899364667931344e-02
9.323899364667931344e-02
2.913718551458729933e-02
4.079205972042221351e-02
1.165487420583491696e-01
1.223761791612666128e-01
9.906643074959678441e-02
1.048938678525142276e-01
0.000000000000000000e+00
0.000000000000000000e+00
2.913718551458729933e-02
1.223761791612666128e-01
4.079205972042221351e-02
4.661949682333965672e-02
4.079205972042221351e-02
1.048938678525142276e-01
6.992924523500948508e-02
2.330974841166982836e-02
1.748231130875238515e-02
1.165487420583491418e-02
-5.244693392625709993e-02
5.827437102917457090e-02
8.741155654376187023e-02
1.398584904700189979e-01
-2.330974841166981448e-02
-5.244693392625709993e-02
0.000000000000000000e+00
5.827437102917457090e-02
1.748231130875238515e-02
1.165487420583491418e-02
4.079205972042221351e-02
5.827437102917457090e-02
5.827437102917470968e-03
-8.741155654376184247e-02
-5.827437102917455702e-02
2.330974841166982836e-02
6.992924523500948508e-02
-4.661949682333964284e-02
-6.410180813209201411e-02
1.165487420583491418e-02
0.000000000000000000e+00
-6.992924523500947120e-02
-2.330974841166981448e-02
5.244693392625712769e-02
1.165487420583491418e-02
1.165487420583490030e-02
-4.079205972042219963e-02
-1.748231130875237127e-02
4.661949682333964284e-02
1.107213049554316847e-01
-5.827437102917457090e-03
-5.827437102917457090e-03
1.806505501904411282e-01
1.340310533671015270e-01
6.992924523500947120e-02
-1.748231130875237127e-02
-3.146816035575426551e-01
-3.613011003808823118e-01
-1.689956759846062417e-01
-9.906643074959677053e-02
-4.661949682333965672e-02
-1.107213049554316708e-01
-5.244693392625711381e-02
5.827437102917457090e-03
5.827437102917457090e-03
1.223761791612665850e-01
1.456859275729364134e-01
7.575668233792692829e-02
0.000000000000000000e+00
6.410180813209201411e-02
1.107213049554316708e-01
1.282036162641840560e-01
1.398584904700189702e-01
-5.827437102917457090e-03
-2.971992922487902700e-01
-6.759827039384249669e-01
-2.668966193136195209e+00
-2.663138756033277765e+00
-8.566332541288661506e-01
3.723732308764255095e+00
6.270322322739183996e+00
5.017423345611930152e+00
3.537254321470896468e+00
1.526788520964373674e+00
-3.671285374837998106e-01
-9.207350622609582480e-01
-9.265624993638756912e-01
-6.818101410413425212e-01
-4.545400940275616808e-01
-4.079205972042220241e-01
-2.971992922487902700e-01
-2.564072325283680565e-01
-2.389249212196157268e-01
-2.156151728079458985e-01
-1.631682388816887985e-01
-2.389249212196157268e-01
-3.263364777633775971e-01
-2.156151728079458985e-01
1.398584904700189702e-01
-3.088541664546251564e-01
-2.330974841166982559e-01
-5.069870279538187807e-01
-2.738895438371204971e-01
-1.107213049554316708e-01
-3.496462261750473699e-01
-4.895047166450663401e-01
-2.971992922487902700e-01
-3.146816035575427106e-01
-5.069870279538187807e-01
-5.419516505713234400e-01
-5.128144650567362239e-01
-5.011595908509012265e-01
-5.652613989829933239e-01
-5.244693392625711104e-01
-4.603675311304791240e-01
-3.554736632779648131e-01
-3.379913519692124835e-01
-2.156151728079458985e-01
-1.340310533671014992e-01
-5.827437102917456396e-02
0.000000000000000000e+00
0.000000000000000000e+00
5.244693392625709993e-02
1.515133646758538843e-01
1.456859275729364411e-01
7.575668233792692829e-02
7.575668233792692829e-02
1.107213049554316708e-01
1.107213049554316708e-01
6.992924523500948508e-02
5.827437102917457090e-02
2.330974841166982836e-02
8.741155654376184247e-02
9.906643074959675666e-02
5.827437102917457090e-03
9.323899364667931344e-02
9.906643074959675666e-02
9.323899364667929957e-02
1.515133646758538566e-01
1.515133646758538566e-01
3.205090406604600983e-01
1.573408017787712998e-01
1.515133646758538566e-01
1.340310533671014714e-01
7.575668233792695605e-02
1.340310533671014992e-01
6.410180813209201411e-02
6.992924523500948508e-02
-3.496462261750472866e-02
-5.827437102917455702e-02
1.165487420583491418e-02
2.330974841166982836e-02
-2.330974841166982836e-02
-1.165487420583491418e-02
5.827437102917470968e-03
0.000000000000000000e+00
-7.575668233792692829e-02
-8.741155654376184247e-02
-2.330974841166982836e-02
-2.330974841166982836e-02
-8.158411944084438538e-02
-6.992924523500947120e-02
-9.323899364667931344e-02
-9.323899364667931344e-02
-7.575668233792694217e-02
-6.410180813209202799e-02
-6.992924523500948508e-02
-2.330974841166982836e-02
-1.107213049554316708e-01
-1.048938678525142137e-01
-7.575668233792692829e-02
-6.992924523500947120e-02
-1.398584904700189702e-01
-7.575668233792692829e-02
-6.410180813209201411e-02
-6.992924523500948508e-02
-8.158411944084438538e-02
-9.323899364667929957e-02
-1.223761791612665850e-01
-8.741155654376184247e-02
-3.496462261750474254e-02
-8.158411944084438538e-02
-3.496462261750474254e-02
-1.165487420583491418e-02
6.410180813209204187e-02
4.661949682333965672e-02
1.165487420583491418e-02
3.496462261750474254e-02
2.913718551458729933e-02
3.496462261750474254e-02
5.244693392625712769e-02
1.048938678525142276e-01
1.282036162641840560e-01
9.323899364667934120e-02
1.223761791612666128e-01
1.515133646758538843e-01
1.340310533671014992e-01
-6.410180813209201411e-02
-2.447523583225331700e-01
-2.272700470137808126e-01
-1.165487420583491279e-01
-5.827437102917443212e-03
-6.992924523500948508e-02
-3.496462261750474254e-02
5.244693392625709993e-02
1.282036162641840282e-01
1.573408017787712998e-01
1.048938678525141999e-01
6.992924523500948508e-02
1.340310533671014714e-01
1.864779872933586269e-01
1.748231130875236849e-01
1.923054243962760701e-01
1.981328614991935133e-01
1.165487420583491418e-01
-1.689956759846062417e-01
-3.729559745867172538e-01
-1.946363992374430696e+00
-2.919545988561645711e+00
-2.051257860226944896e+00
2.523280265563259128e+00
6.491764932650046838e+00
5.792472480299951876e+00
4.102515720453888903e+00
1.701611634051897415e+00
-5.827437102917457090e-02
-6.934650152471772966e-01
-6.759827039384249669e-01
-3.671285374837997550e-01
-1.864779872933585991e-01
-4.079205972042218575e-02
-4.079205972042218575e-02
-1.165487420583488642e-02
5.827437102917498724e-03
-4.079205972042215800e-02
-2.913718551458727157e-02
5.827437102917498724e-03
5.244693392625709993e-02
4.661949682333965672e-02
2.330974841166982836e-02
-2.913718551458732708e-02
-2.913718551458732708e-02
-4.079205972042221351e-02
0.000000000000000000e+00
-2.913718551458732708e-02
-6.992924523500951284e-02
-1.864779872933586269e-01
-1.748231130875237405e-01
-1.981328614991935688e-01
-2.447523583225332255e-01
-3.146816035575427106e-01
-2.797169809400379403e-01
-3.205090406604601538e-01
-3.263364777633775971e-01
-2.505797954254506132e-01
-3.030267293517077132e-01
-2.564072325283680565e-01
-1.456859275729364134e-01
-1.223761791612665850e-01
-8.741155654376184247e-02
6.410180813209198636e-02
1.456859275729364134e-01
1.748231130875237405e-01
2.039602986021110120e-01
2.680621067342029984e-01
3.088541664546252119e-01
3.379913519692125390e-01
3.263364777633775415e-01
2.564072325283681120e-01
2.738895438371204416e-01
2.622346696312855552e-01
3.030267293517077687e-01
2.272700470137807849e-01
1.689956759846062417e-01
1.864779872933586269e-01
1.689956759846062417e-01
1.806505501904411282e-01
1.689956759846062417e-01
1.864779872933586269e-01
1.515133646758538566e-01
1.864779872933586269e-01
1.864779872933586269e-01
2.039602986021109565e-01
2.738895438371204416e-01
2.505797954254506688e-01
1.864779872933586269e-01
1.864779872933586269e-01
1.573408017787712998e-01
1.340310533671014714e-01
1.165487420583491418e-01
1.223761791612665850e-01
8.158411944084437151e-02
8.158411944084437151e-02
2.330974841166982836e-02
1.165487420583488642e-02
4.079205972042221351e-02
7.575668233792692829e-02
0.000000000000000000e+00
-5.827437102917443212e-03
5.827437102917443212e-03
0.000000000000000000e+00
-1.748231130875238515e-02
1.165487420583491418e-02
-1.165487420583491418e-02
-4.661949682333964284e-02
0.000000000000000000e+00
5.827437102917457090e-02
-1.748231130875237127e-02
-4.079205972042219963e-02
5.244693392625711381e-02
5.827437102917457090e-03
-2.913718551458728198e-02
-4.661949682333965672e-02
-1.165487420583491418e-02
5.827437102917456223e-03
6.992924523500948508e-02
0.000000000000000000e+00
0.000000000000000000e+00
1.748231130875237127e-02
0.000000000000000000e+00
-2.913718551458728545e-02
0.000000000000000000e+00
1.748231130875237127e-02
0.000000000000000000e+00
0.000000000000000000e+00
1.165487420583491418e-02
-3.496462261750475642e-02
-4.661949682333965672e-02
0.000000000000000000e+00
-6.992924523500945733e-02
-2.330974841166982836e-02
0.000000000000000000e+00
-5.827437102917454315e-02
-4.661949682333965672e-02
-3.496462261750474254e-02
0.000000000000000000e+00
6.410180813209201411e-02
9.323899364667929957e-02
8.741155654376184247e-02
6.992924523500948508e-02
-5.244693392625712769e-02
-2.272700470137807849e-01
-3.146816035575426551e-01
-2.447523583225331700e-01
-1.573408017787713553e-01
-1.864779872933585714e-01
-1.806505501904411282e-01
-5.827437102917454315e-02
-5.827437102917443212e-03
4.079205972042221351e-02
5.244693392625712769e-02
4.079205972042221351e-02
-2.913718551458727157e-02
0.000000000000000000e+00
5.827437102917443212e-03
2.913718551458727157e-02
7.575668233792692829e-02
6.992924523500948508e-02
-6.992924523500948508e-02
-3.904382858954696389e-01
-8.333235057171961557e-01
-2.738895438371204527e+00
-3.298329400251280408e+00
-1.759886005081071847e+00
3.782006679793429527e+00
6.410180813209202633e+00
4.947494100376920834e+00
3.100196538752086894e+00
6.351906442180028645e-01
-5.885711473946630967e-01
-8.391509428201138210e-01
-6.818101410413424102e-01
-4.603675311304791240e-01
-3.613011003808823673e-01
-3.088541664546251564e-01
-2.447523583225331700e-01
-2.505797954254506132e-01
-2.039602986021109565e-01
-2.156151728079459540e-01
-1.689956759846062972e-01
-1.806505501904411837e-01
-2.622346696312856107e-01
-2.039602986021109565e-01
-2.564072325283680565e-01
-2.855444180429553835e-01
-2.622346696312856107e-01
-2.622346696312856107e-01
-2.738895438371204971e-01
-3.030267293517077132e-01
-2.272700470137808404e-01
-2.505797954254506132e-01
-3.205090406604601538e-01
-3.438187890721299267e-01
-4.020931601013044698e-01
-4.487126569246441266e-01
-4.195754714100569105e-01
-4.370577827188092401e-01
-4.137480343071394673e-01
-3.554736632779648131e-01
-2.855444180429553835e-01
-1.806505501904411837e-01
-1.631682388816887430e-01
-1.048938678525141999e-01
-5.244693392625709993e-02
-4.079205972042221351e-02
2.913718551458727157e-02
7.575668233792692829e-02
8.741155654376187023e-02
2.913718551458727157e-02
2.913718551458727157e-02
6.992924523500948508e-02
0.000000000000000000e+00
5.827437102917498724e-03
-3.496462261750477030e-02
1.165487420583494194e-02
1.748231130875238515e-02
-2.913718551458727157e-02
-4.079205972042221351e-02
-4.079205972042221351e-02
1.165487420583488642e-02
-2.913718551458727157e-02
-7.575668233792692829e-02
-5.827437102917459866e-02
-7.575668233792692829e-02
0.000000000000000000e+00
0.000000000000000000e+00
0.000000000000000000e+00
2.330974841166982836e-02
7.575668233792695605e-02
1.748231130875238515e-02
5.827437102917454315e-02
2.913718551458727157e-02
0.000000000000000000e+00
-5.827437102917443212e-03
5.827437102917443212e-03
-2.330974841166982836e-02
2.330974841166982836e-02
4.661949682333965672e-02
-5.827437102917443212e-03
-2.330974841166982836e-02
0.000000000000000000e+00
-2.330974841166982836e-02
-2.330974841166982836e-02
2.330974841166982836e-02
4.079205972042221351e-02
5.827437102917470968e-03
1.748231130875238515e-02
2.330974841166982836e-02
2.330974841166982836e-02
4.661949682333965672e-02
-5.827437102917443212e-03
-5.827437102917454315e-02
-8.158411944084437151e-02
-4.079205972042221351e-02
1.748231130875238515e-02
0.000000000000000000e+00
-2.913718551458727157e-02
0.000000000000000000e+00
2.330974841166982836e-02
5.827437102917457090e-02
4.079205972042221351e-02
1.165487420583491418e-02
0.000000000000000000e+00
2.330974841166982836e-02
4.661949682333965672e-02
-6.410180813209204187e-02
-3.496462261750471479e-02
-2.330974841166982836e-02
-6.410180813209204187e-02
0.000000000000000000e+00
7.575668233792692829e-02
2.330974841166982836e-02
5.827437102917457090e-02
1.748231130875238515e-02
1.165487420583491418e-02
0.000000000000000000e+00
5.244693392625712769e-02
-2.913718551458727157e-02
0.000000000000000000e+00
4.079205972042221351e-02
0.000000000000000000e+00
-2.913718551458727157e-02
1.165487420583491418e-01
1.223761791612665989e-01
1.515133646758538843e-01
8.158411944084439926e-02
-6.410180813209204187e-02
-3.321639148662950403e-01
-2.389249212196157268e-01
-2.097877357050284552e-01
-1.223761791612665850e-01
-1.864779872933586269e-01
-8.741155654376187023e-02
1.165487420583491418e-02
2.330974841166982836e-02
1.107213049554316847e-01
1.165487420583491418e-01
3.496462261750474254e-02
4.661949682333965672e-02
8.158411944084439926e-02
3.496462261750474254e-02
1.107213049554316847e-01
1.165487420583491418e-01
9.323899364667931344e-02
-2.214426099108633417e-01
-3.496462261750473699e-01
-1.317000785259345275e+00
-3.088541664546252008e+00
-2.843789306223718949e+00
5.827437102917457090e-02
4.964976411685673163e+00
6.130463832269164470e+00
4.166617528585981667e+00
2.325147404064065171e+00
2.680621067342029984e-01
-7.284296378646820669e-01
-8.216686315113613803e-01
-5.652613989829933239e-01
-3.729559745867172538e-01
-3.030267293517077132e-01
-2.389249212196156991e-01
-1.981328614991935411e-01
-2.039602986021109843e-01
-2.330974841166982559e-01
-2.447523583225331978e-01
-1.689956759846062417e-01
-1.515133646758538566e-01
-8.741155654376187023e-02
-1.806505501904411837e-01
-1.864779872933586269e-01
-1.748231130875236849e-01
-1.573408017787713553e-01
-1.923054243962760701e-01
-2.389249212196157268e-01
-1.923054243962760701e-01
-2.330974841166982836e-01
-2.564072325283681120e-01
-2.738895438371204416e-01
-3.263364777633775415e-01
-3.613011003808823118e-01
-4.428852198217267389e-01
-4.195754714100568550e-01
-4.254029085129742982e-01
-3.787834116896346415e-01
-2.855444180429553835e-01
-2.738895438371204416e-01
-1.806505501904411837e-01
-1.165487420583491418e-01
-9.323899364667931344e-02
0.000000000000000000e+00
2.913718551458727157e-02
6.410180813209202799e-02
1.165487420583491418e-02
4.079205972042221351e-02
1.048938678525142276e-01
7.575668233792695605e-02
6.410180813209204187e-02
4.661949682333967060e-02
4.079205972042221351e-02
6.410180813209204187e-02
-5.827437102917443212e-03
-2.330974841166980061e-02
3.496462261750475642e-02
5.827437102917458478e-02
2.913718551458729933e-02
4.661949682333967060e-02
2.913718551458729933e-02
4.661949682333967060e-02
5.827437102917458478e-02
9.906643074959678441e-02
4.661949682333967060e-02
1.748231130875238515e-02
5.827437102917458478e-02
7.575668233792695605e-02
-1.165487420583491418e-02
5.827437102917458478e-02
8.741155654376187023e-02
8.741155654376187023e-02
1.340310533671015270e-01
8.158411944084441314e-02
6.410180813209204187e-02
8.741155654376187023e-02
1.282036162641840560e-01
5.244693392625712769e-02
3.496462261750475642e-02
3.496462261750475642e-02
4.079205972042221351e-02
4.661949682333967060e-02
6.410180813209204187e-02
8.741155654376187023e-02
6.410180813209204187e-02
2.913718551458729933e-02
5.827437102917470968e-03
1.165487420583491418e-02
4.661949682333967060e-02
4.661949682333967060e-02
4.661949682333967060e-02
4.661949682333967060e-02
-2.913718551458727157e-02
-1.165487420583491418e-02
1.165487420583491418e-02
7.575668233792694217e-02
-5.827437102917470968e-03
5.827437102917470968e-03
0.000000000000000000e+00
-5.827437102917470968e-03
-2.913718551458727157e-02
0.000000000000000000e+00
-2.330974841166982836e-02
-7.575668233792695605e-02
-1.748231130875238515e-02
-6.410180813209204187e-02
-2.913718551458727157e-02
3.496462261750474254e-02
5.827437102917443212e-03
1.165487420583491418e-02
5.827437102917443212e-03
1.748231130875235739e-02
-1.165487420583491418e-02
-2.913718551458729933e-02
2.913718551458729933e-02
0.000000000000000000e+00
-4.079205972042221351e-02
0.000000000000000000e+00
0.000000000000000000e+00
0.000000000000000000e+00
-3.496462261750477030e-02
-2.330974841166982836e-02
2.330974841166982836e-02
7.575668233792692829e-02
6.410180813209201411e-02
1.398584904700189702e-01
-2.913718551458727157e-02
-2.389249212196157268e-01
-2.971992922487903255e-01
-3.088541664546252119e-01
-1.573408017787713553e-01
-1.748231130875236849e-01
-1.981328614991935133e-01
-1.282036162641840282e-01
-1.748231130875232964e-02
5.244693392625712769e-02
6.992924523500948508e-02
1.165487420583488642e-02
3.496462261750471479e-02
3.496462261750471479e-02
6.992924523500945733e-02
9.906643074959675666e-02
5.244693392625712769e-02
6.992924523500951284e-02
-1.165487420583488642e-02
-4.312303456158917414e-01
-6.643278297325900805e-01
-2.365939463784487273e+00
-3.257537340530858305e+00
-2.161979165182376317e+00
2.942855736973315928e+00
6.305286945356688655e+00
5.262175703934463655e+00
3.566391506985483684e+00
1.252898977127253177e+00
-3.321639148662949848e-01
-8.041863202026091617e-01
-7.342570749675996211e-01
-4.487126569246441821e-01
-3.088541664546252119e-01
-1.748231130875236849e-01
-1.748231130875236849e-01
-1.515133646758538566e-01
-1.340310533671014714e-01
-1.107213049554316431e-01
-1.748231130875232964e-02
-7.575668233792692829e-02
-1.223761791612665850e-01
-2.330974841166982836e-02
-5.827437102917454315e-02
-8.158411944084437151e-02
-8.741155654376181472e-02
-7.575668233792692829e-02
-1.515133646758538566e-01
-1.864779872933585714e-01
-1.456859275729364134e-01
-1.864779872933585714e-01
-3.438187890721299822e-01
-2.855444180429553280e-01
-3.729559745867171983e-01
-4.254029085129742982e-01
-3.729559745867171983e-01
-3.729559745867171983e-01
-3.904382858954695279e-01
-3.729559745867171983e-01
-3.030267293517077687e-01
-2.447523583225331145e-01
-1.864779872933585714e-01
-6.410180813209198636e-02
0.000000000000000000e+00
0.000000000000000000e+00
0.000000000000000000e+00
4.661949682333965672e-02
4.661949682333965672e-02
6.410180813209202799e-02
2.330974841166982836e-02
4.661949682333965672e-02
6.992924523500948508e-02
4.079205972042218575e-02
1.165487420583491418e-02
5.827437102917457090e-02
5.827437102917443212e-03
1.165487420583491418e-02
3.496462261750474254e-02
3.496462261750474254e-02
2.156151728079458985e-01
7.575668233792694217e-02
3.496462261750474254e-02
8.741155654376185635e-02
-1.223761791612666128e-01
1.515133646758538843e-01
9.323899364667931344e-02
8.741155654376185635e-02
7.575668233792694217e-02
1.048938678525142276e-01
1.048938678525142276e-01
4.079205972042218575e-02
6.410180813209202799e-02
6.410180813209202799e-02
5.827437102917457090e-02
9.906643074959677053e-02
1.573408017787713276e-01
5.244693392625711381e-02
1.165487420583491418e-02
6.410180813209202799e-02
4.661949682333965672e-02
5.827437102917457090e-02
2.913718551458727157e-02
0.000000000000000000e+00
2.913718551458727157e-02
1.165487420583491418e-02
5.827437102917443212e-03
2.330974841166982836e-02
2.330974841166982836e-02
3.496462261750474254e-02
4.079205972042218575e-02
4.661949682333965672e-02
6.410180813209202799e-02
-8.741155654376184247e-02
-5.827437102917457090e-02
1.748231130875235739e-02
1.165487420583491418e-02
5.827437102917443212e-03
5.827437102917470968e-03
-4.079205972042218575e-02
1.748231130875238515e-02
0.000000000000000000e+00
-4.079205972042221351e-02
-6.992924523500945733e-02
2.330974841166982836e-02
-6.992924523500945733e-02
0.000000000000000000e+00
-2.330974841166982836e-02
4.079205972042218575e-02
2.330974841166982836e-02
1.748231130875235739e-02
0.000000000000000000e+00
-6.410180813209204187e-02
1.748231130875235739e-02
6.992924523500945733e-02
0.000000000000000000e+00
-5.827437102917459866e-02
-4.661949682333962897e-02
-4.079205972042218575e-02
-4.661949682333962897e-02
-1.748231130875238515e-02
6.992924523500948508e-02
3.496462261750477030e-02
2.913718551458729933e-02
-1.165487420583494194e-02
-5.827437102917498724e-03
1.748231130875232964e-02
9.323899364667928569e-02
1.631682388816887708e-01
1.165487420583491140e-01
1.223761791612665573e-01
-5.244693392625709993e-02
-2.855444180429553280e-01
-2.622346696312855552e-01
-1.748231130875236849e-01
-1.748231130875236849e-01
-2.097877357050284552e-01
-1.573408017787712998e-01
-8.158411944084437151e-02
5.827437102917443212e-03
5.827437102917443212e-03
0.000000000000000000e+00
0.000000000000000000e+00
6.992924523500948508e-02
8.741155654376187023e-02
5.827437102917443212e-03
9.323899364667931344e-02
6.410180813209204187e-02
1.165487420583491418e-01
-1.282036162641840282e-01
-3.554736632779648686e-01
-9.090801880551231395e-01
-2.651483881827442879e+00
-2.616519259209938220e+00
-1.748231130875236849e-01
4.603675311304790796e+00
6.357733879282945644e+00
4.737706364671891990e+00
3.030267293517077576e+00
8.624606912317835938e-01
-4.895047166450663956e-01
-8.915978767463708099e-01
-7.284296378646819559e-01
-4.953321537479838388e-01
-3.205090406604600983e-01
-2.214426099108633417e-01
-2.214426099108633417e-01
-9.906643074959675666e-02
-9.323899364667931344e-02
-4.661949682333965672e-02
-4.661949682333965672e-02
0.000000000000000000e+00
-6.992924523500948508e-02
-9.906643074959675666e-02
-5.244693392625709993e-02
-4.079205972042221351e-02
-1.165487420583491418e-01
-7.575668233792692829e-02
-1.107213049554316431e-01
-1.340310533671014714e-01
-1.398584904700189702e-01
-1.631682388816887985e-01
-2.797169809400378848e-01
-2.797169809400378848e-01
-3.205090406604600983e-01
-4.137480343071394118e-01
-4.137480343071394118e-01
-3.846108487925520847e-01
-3.554736632779648686e-01
-3.205090406604600983e-01
-3.205090406604600983e-01
-2.330974841166982281e-01
-1.631682388816887985e-01
-9.323899364667931344e-02
0.000000000000000000e+00
0.000000000000000000e+00
0.000000000000000000e+00
0.000000000000000000e+00
0.000000000000000000e+00
0.000000000000000000e+00
0.000000000000000000e+00
5.827437102917456396e-02
6.992924523500948508e-02
3.496462261750473560e-02
7.575668233792692829e-02
-5.827437102917457090e-03
1.165487420583491418e-02
3.496462261750473560e-02
0.000000000000000000e+00
-5.827437102917457090e-03
6.992924523500947120e-02
6.410180813209201411e-02
6.992924523500947120e-02
1.048938678525142137e-01
9.323899364667929957e-02
1.456859275729364134e-01
1.631682388816887985e-01
1.165487420583491279e-01
1.223761791612665850e-01
1.165487420583491279e-01
8.158411944084438538e-02
1.165487420583491279e-01
1.573408017787713276e-01
2.913718551458727851e-02
-2.913718551458728545e-02
3.496462261750473560e-02
9.323899364667929957e-02
1.456859275729364134e-01
0.000000000000000000e+00
-3.496462261750474254e-02
3.496462261750473560e-02
4.661949682333964978e-02
3.962657229983870266e-01
-3.321639148662950403e-01
1.748231130875236433e-02
2.330974841166982142e-02
-2.330974841166982836e-02
-8.158411944084439926e-02
-4.661949682333965672e-02
-3.496462261750474254e-02
2.330974841166982142e-02
1.165487420583490724e-02
-5.827437102917457090e-03
-2.330974841166982836e-02
-1.165487420583490724e-02
3.496462261750474254e-02
1.165487420583491418e-02
-2.330974841166982142e-02
2.913718551458728545e-02
-6.992924523500948508e-02
-3.496462261750473560e-02
-4.661949682333964978e-02
-8.158411944084439926e-02
-7.575668233792695605e-02
-5.244693392625710687e-02
5.827437102917457090e-03
-4.079205972042219963e-02
-5.827437102917457090e-03
-4.079205972042219963e-02
-2.330974841166982836e-02
5.827437102917456396e-02
5.244693392625710687e-02
3.496462261750473560e-02
-3.496462261750474254e-02
-1.748231130875237127e-02
-5.827437102917457090e-03
-2.330974841166982836e-02
5.827437102917457090e-03
5.244693392625710687e-02
9.906643074959675666e-02
6.992924523500947120e-02
6.410180813209201411e-02
-6.410180813209204187e-02
-2.913718551458728268e-01
-2.272700470137808126e-01
-1.340310533671014992e-01
-4.661949682333965672e-02
-8.741155654376187023e-02
-7.575668233792695605e-02
4.661949682333964978e-02
8.741155654376184247e-02
1.048938678525142137e-01
8.741155654376184247e-02
2.330974841166982836e-02
1.340310533671014992e-01
1.165487420583491279e-01
9.323899364667929957e-02
1.282036162641840282e-01
1.165487420583491279e-01
1.631682388816887985e-01
3.496462261750473560e-02
-2.738895438371204971e-01
-6.526729555267551941e-01
-2.534935139769094015e+00
-2.447523583225331478e+00
-6.701552668355075237e-01
3.916037733160530721e+00
6.445145435826707292e+00
5.297140326551968315e+00
3.712077434558420208e+00
1.538443395170208561e+00
-3.904382858954695834e-01
-8.449783799230312642e-01
-7.633942604821868372e-01
-5.652613989829933239e-01
-3.904382858954695834e-01
-2.971992922487903255e-01
-2.680621067342029984e-01
-2.622346696312855552e-01
-2.156151728079459262e-01
-2.214426099108633972e-01
-2.039602986021110120e-01
-1.864779872933586269e-01
-1.165487420583491418e-01
-1.631682388816887985e-01
-1.631682388816887985e-01
-2.214426099108633417e-01
-2.097877357050284552e-01
-2.564072325283680565e-01
-2.214426099108633694e-01
-1.981328614991935411e-01
-2.913718551458728268e-01
-3.321639148662950403e-01
-3.496462261750473699e-01
-3.671285374837997550e-01
-4.428852198217266833e-01
-4.312303456158917969e-01
-5.186419021596536671e-01
-5.769162731888282103e-01
-4.603675311304790685e-01
-4.603675311304790685e-01
-4.428852198217266833e-01
-3.846108487925521402e-01
-3.379913519692124835e-01
-3.146816035575426551e-01
-1.573408017787713276e-01
-5.244693392625710687e-02
0.000000000000000000e+00
5.244693392625709993e-02
9.906643074959675666e-02
8.741155654376184247e-02
1.689956759846062417e-01
1.340310533671014992e-01
1.864779872933586269e-01
2.447523583225331700e-01
2.797169809400379403e-01
2.039602986021110120e-01
1.048938678525142276e-01
1.282036162641840560e-01
1.631682388816887985e-01
2.039602986021110120e-01
1.864779872933586269e-01
1.864779872933586269e-01
1.223761791612665850e-01
1.864779872933586269e-01
2.913718551458728268e-01
2.505797954254506688e-01
1.864779872933586269e-01
2.680621067342029984e-01
2.680621067342029984e-01
2.214426099108633417e-01
2.097877357050284552e-01
2.214426099108633417e-01
1.282036162641840560e-01
1.748231130875236849e-01
1.573408017787713276e-01
1.223761791612665850e-01
1.107213049554316708e-01
9.906643074959675666e-02
4.079205972042219963e-02
1.048938678525142276e-01
1.806505501904411837e-01
1.340310533671014992e-01
1.165487420583491418e-01
9.906643074959675666e-02
5.827437102917457090e-02
0.000000000000000000e+00
-2.330974841166982836e-02
0.000000000000000000e+00
0.000000000000000000e+00
1.165487420583491418e-02
-5.827437102917457090e-03
-3.496462261750474254e-02
5.827437102917457090e-03
2.913718551458728545e-02
0.000000000000000000e+00
-1.748231130875237127e-02
-2.913718551458728545e-02
2.272700470137808404e-01
1.165487420583491418e-02
5.827437102917457090e-03
3.030267293517077687e-01
-3.496462261750474254e-01
-1.165487420583491418e-02
-5.827437102917456396e-02
-6.410180813209201411e-02
-5.827437102917456396e-02
-4.661949682333964978e-02
5.827437102917457090e-03
5.827437102917457090e-02
1.048938678525142276e-01
4.661949682333964978e-02
1.573408017787713276e-01
5.244693392625710687e-02
-9.323899364667929957e-02
-8.741155654376184247e-02
-7.575668233792692829e-02
-8.741155654376184247e-02
-1.456859275729364411e-01
-5.827437102917456396e-02
0.000000000000000000e+00
2.330974841166982489e-02
4.079205972042219963e-02
0.000000000000000000e+00
-1.165487420583491418e-01
-1.165487420583491418e-02
8.158411944084439926e-02
0.000000000000000000e+00
3.496462261750474254e-02
4.661949682333965672e-02
-4.661949682333964978e-02
-3.904382858954695834e-01
-6.934650152471774076e-01
-2.494143080048671468e+00
-3.071059353237499678e+00
-1.171314857686408750e+00
3.589701255397153012e+00
6.783136787795919886e+00
5.506928062256996270e+00
3.170125783987096213e+00
9.382173735697104666e-01
-6.118808958063329806e-01
-9.790094332901327912e-01
-7.459119491734345075e-01
-4.545400940275616253e-01
-3.438187890721299267e-01
-2.680621067342029984e-01
-2.389249212196157546e-01
-2.214426099108633694e-01
-2.039602986021109843e-01
-1.981328614991935411e-01
-9.323899364667931344e-02
-8.741155654376187023e-02
-9.323899364667931344e-02
-1.107213049554316986e-01
-1.282036162641840560e-01
-6.410180813209201411e-02
-1.223761791612665850e-01
-8.158411944084439926e-02
-7.575668233792695605e-02
-1.282036162641840560e-01
-1.631682388816887985e-01
-1.981328614991935411e-01
-2.447523583225331978e-01
-3.030267293517077132e-01
-3.146816035575426551e-01
-3.496462261750473699e-01
-3.438187890721299267e-01
-3.321639148662950403e-01
-3.613011003808823118e-01
-3.205090406604600983e-01
-2.389249212196157546e-01
-1.981328614991935411e-01
-1.631682388816887985e-01
-5.244693392625710687e-02
0.000000000000000000e+00
0.000000000000000000e+00
0.000000000000000000e+00
0.000000000000000000e+00
0.000000000000000000e+00
4.661949682333960121e-02
0.000000000000000000e+00
0.000000000000000000e+00
1.165487420583494194e-02
1.748231130875238515e-02
-1.165487420583494194e-02
-5.244693392625709993e-02
0.000000000000000000e+00
0.000000000000000000e+00
0.000000000000000000e+00
0.000000000000000000e+00
-1.165487420583488642e-02
0.000000000000000000e+00
2.913718551458727157e-02
-2.913718551458727157e-02
0.000000000000000000e+00
5.244693392625709993e-02
0.000000000000000000e+00
-5.244693392625709993e-02
4.079205972042221351e-02
1.165487420583488642e-02
-5.244693392625709993e-02
0.000000000000000000e+00
3.496462261750477030e-02
3.496462261750477030e-02
4.079205972042210249e-02
5.827437102917443212e-03
3.496462261750477030e-02
0.000000000000000000e+00
0.000000000000000000e+00
-3.496462261750477030e-02
-3.496462261750477030e-02
1.748231130875244066e-02
0.000000000000000000e+00
0.000000000000000000e+00
0.000000000000000000e+00
5.827437102917454315e-02
8.741155654376187023e-02
0.000000000000000000e+00
-5.827437102917443212e-03
-4.079205972042210249e-02
1.165487420583499745e-02
6.410180813209198636e-02
4.661949682333965672e-02
-2.330974841166988387e-02
1.748231130875232964e-02
-1.165487420583499745e-02
5.827437102917443212e-03
-2.330974841166988387e-02
-2.330974841166988387e-02
1.748231130875232964e-02
5.827437102917454315e-02
5.244693392625709993e-02
-2.330974841166988387e-02
0.000000000000000000e+00
5.244693392625709993e-02
1.165487420583490863e-01
3.496462261750465927e-02
9.906643074959675666e-02
1.340310533671015270e-01
1.515133646758538566e-01
1.515133646758538566e-01
1.107213049554316431e-01
1.573408017787712998e-01
1.398584904700189702e-01
1.689956759846061862e-01
1.864779872933586269e-01
2.622346696312854997e-01
3.205090406604600428e-01
1.864779872933586269e-01
-5.827437102917443212e-03
1.282036162641839727e-01
1.107213049554316431e-01
1.748231130875232964e-02
-1.748231130875244066e-02
1.165487420583488642e-02
1.573408017787712998e-01
1.923054243962760701e-01
1.631682388816887430e-01
1.515133646758538566e-01
1.864779872933586269e-01
1.689956759846061862e-01
1.748231130875236294e-01
2.156151728079458429e-01
2.680621067342029429e-01
2.039602986021109565e-01
1.456859275729364134e-01
-2.797169809400379403e-01
-4.778498424392314536e-01
-2.080395045741532112e+00
-3.181780658192931099e+00
-1.963846303683183026e+00
2.418386397710744706e+00
6.643278297325901249e+00
5.932330970769971401e+00
3.554736632779648797e+00
1.456859275729364356e+00
-2.039602986021110120e-01
-6.818101410413425212e-01
-6.118808958063329806e-01
-3.263364777633775971e-01
-1.573408017787714108e-01
-2.913718551458732708e-02
7.575668233792687278e-02
4.079205972042221351e-02
3.496462261750477030e-02
9.323899364667931344e-02
5.827437102917454315e-02
2.913718551458732708e-02
6.410180813209209738e-02
1.631682388816887430e-01
9.906643074959681217e-02
7.575668233792698381e-02
1.282036162641840837e-01
1.282036162641840837e-01
5.827437102917459866e-02
1.573408017787714108e-01
0.000000000000000000e+00
-5.827437102917443212e-03
-7.575668233792692829e-02
-1.340310533671014714e-01
-1.398584904700189147e-01
-2.564072325283680565e-01
-3.146816035575426551e-01
-2.797169809400379403e-01
-2.680621067342029984e-01
-2.272700470137808126e-01
-2.156151728079459262e-01
-1.806505501904411282e-01
-1.282036162641840282e-01
-1.748231130875232964e-02
0.000000000000000000e+00
8.741155654376181472e-02
1.515133646758538566e-01
1.806505501904411282e-01
1.981328614991935411e-01
2.447523583225331978e-01
2.505797954254506132e-01
1.689956759846062417e-01
1.748231130875236849e-01
1.689956759846062417e-01
1.631682388816887985e-01
8.158411944084437151e-02
1.165487420583491418e-02
-1.748231130875238515e-02
5.827437102917457090e-02
0.000000000000000000e+00
-1.748231130875237127e-02
-1.165487420583491418e-02
2.913718551458728545e-02
-5.827437102917457090e-03
-1.748231130875237127e-02
0.000000000000000000e+00
-2.913718551458728198e-02
2.330974841166982836e-02
0.000000000000000000e+00
2.913718551458728198e-02
0.000000000000000000e+00
0.000000000000000000e+00
0.000000000000000000e+00
-4.661949682333967060e-02
1.748231130875237127e-02
2.330974841166982836e-02
5.827437102917470968e-03
0.000000000000000000e+00
0.000000000000000000e+00
-1.165487420583491418e-02
1.165487420583491418e-02
-1.165487420583488642e-02
1.165487420583488642e-02
0.000000000000000000e+00
0.000000000000000000e+00
-2.913718551458727157e-02
0.000000000000000000e+00
2.913718551458727157e-02
0.000000000000000000e+00
-1.748231130875244066e-02
1.748231130875244066e-02
-1.165487420583490863e-01
0.000000000000000000e+00
8.741155654376187023e-02
2.913718551458721606e-02
-2.330974841166988387e-02
-3.787834116896345860e-01
5.827437102917454315e-02
-1.165487420583488642e-02
2.330974841166988387e-02
1.748231130875232964e-02
3.496462261750477030e-02
2.330974841166977285e-02
0.000000000000000000e+00
0.000000000000000000e+00
-4.661949682333965672e-02
4.079205972042221351e-02
5.244693392625709993e-02
-8.741155654376175921e-02
4.079205972042221351e-02
4.079205972042221351e-02
2.330974841166988387e-02
5.827437102917443212e-03
0.000000000000000000e+00
-3.496462261750465927e-02
2.913718551458721606e-02
2.330974841166977285e-02
-5.827437102917443212e-03
-8.158411944084442702e-02
-4.079205972042232453e-02
-1.748231130875244066e-02
-5.827437102917554235e-03
-3.496462261750477030e-02
-6.410180813209198636e-02
1.165487420583488642e-02
-4.079205972042221351e-02
-5.827437102917454315e-02
-7.575668233792676176e-02
1.165487420583499745e-02
-5.827437102917443212e-03
5.827437102917465417e-02
1.107213049554317541e-01
1.923054243962760701e-01
1.165487420583491973e-01
-8.158411944084442702e-02
-8.158411944084442702e-02
-1.165487420583488642e-02
-9.906643074959675666e-02
-8.741155654376187023e-02
-3.496462261750465927e-02
2.913718551458721606e-02
5.244693392625709993e-02
0.000000000000000000e+00
1.748231130875232964e-02
-5.827437102917443212e-03
1.165487420583488642e-02
1.748231130875232964e-02
2.330974841166977285e-02
-7.575668233792698381e-02
-2.913718551458721606e-02
-9.906643074959675666e-02
-3.088541664546251564e-01
-6.118808958063328696e-01
-1.585062891993548329e+00
-3.210917843707518315e+00
-3.076886790340417122e+00
1.573408017787712998e-01
4.935839226171085947e+00
5.955640719181641174e+00
4.254029085129743315e+00
2.208598662005716307e+00
2.738895438371204971e-01
-7.342570749675996211e-01
-8.391509428201138210e-01
-5.302967763654886646e-01
-3.088541664546251564e-01
-2.447523583225332811e-01
-1.515133646758539676e-01
-2.097877357050283997e-01
-1.573408017787714108e-01
-5.244693392625721096e-02
-5.244693392625721096e-02
-3.496462261750465927e-02
5.827437102917443212e-03
-3.496462261750465927e-02
-5.244693392625721096e-02
-2.913718551458721606e-02
0.000000000000000000e+00
5.827437102917443212e-03
1.748231130875232964e-02
-1.748231130875232964e-02
0.000000000000000000e+00
-6.992924523500954059e-02
-7.575668233792698381e-02
-8.158411944084442702e-02
-1.107213049554316431e-01
-1.340310533671014159e-01
-1.515133646758539676e-01
-1.864779872933586269e-01
-1.107213049554316431e-01
-1.515133646758539676e-01
-1.631682388816888540e-01
-2.913718551458721606e-02
0.000000000000000000e+00
1.048938678525143109e-01
-1.223761791612666405e-01
1.282036162641840837e-01
2.330974841166988387e-02
2.330974841166977285e-02
6.992924523500942957e-02
1.165487420583499745e-02
-2.505797954254507243e-01
2.330974841166977285e-02
2.913718551458721606e-02
3.496462261750477030e-02
4.661949682333965672e-02
0.000000000000000000e+00
0.000000000000000000e+00
-6.410180813209198636e-02
0.000000000000000000e+00
-7.575668233792687278e-02
2.913718551458721606e-02
0.000000000000000000e+00
-2.913718551458721606e-02
0.000000000000000000e+00
0.000000000000000000e+00
5.827437102917454315e-02
3.496462261750477030e-02
-1.165487420583488642e-02
5.827437102917498724e-03
6.992924523500942957e-02
5.827437102917454315e-02
1.048938678525141999e-01
6.410180813209198636e-02
4.661949682333965672e-02
2.913718551458727157e-02
2.913718551458727157e-02
2.330974841166982836e-02
6.410180813209198636e-02
9.323899364667931344e-02
5.827437102917443212e-03
0.000000000000000000e+00
-1.165487420583494194e-02
-1.748231130875238515e-02
3.496462261750471479e-02
1.165487420583488642e-02
-2.913718551458727157e-02
0.000000000000000000e+00
-2.913718551458727157e-02
-1.748231130875238515e-02
4.661949682333965672e-02
0.000000000000000000e+00
-4.661949682333965672e-02
-1.048938678525142554e-01
-2.913718551458727157e-02
-1.806505501904411282e-01
-1.165487420583494194e-02
-2.913718551458727157e-02
2.913718551458727157e-02
-3.496462261750477030e-02
3.496462261750471479e-02
6.992924523500948508e-02
2.913718551458727157e-02
2.330974841166982836e-02
5.827437102917454315e-02
2.913718551458727157e-02
-1.748231130875238515e-02
0.000000000000000000e+00
-5.827437102917443212e-03
4.079205972042221351e-02
-6.992924523500948508e-02
-2.913718551458727157e-02
-4.661949682333965672e-02
-5.827437102917443212e-03
5.827437102917443212e-03
-2.913718551458727157e-02
2.913718551458727157e-02
6.410180813209204187e-02
6.410180813209204187e-02
7.575668233792692829e-02
1.223761791612665850e-01
2.913718551458727157e-02
2.330974841166982836e-02
1.748231130875238515e-02
-3.496462261750471479e-02
-5.827437102917443212e-03
5.827437102917443212e-03
-2.330974841166982836e-02
-6.992924523500948508e-02
-1.748231130875238515e-02
-2.913718551458727157e-02
-3.496462261750471479e-02
-1.748231130875238515e-02
5.827437102917454315e-02
0.000000000000000000e+00
5.827437102917454315e-02
-5.827437102917443212e-03
-2.097877357050284552e-01
-1.689956759846062417e-01
-9.906643074959670114e-02
-8.741155654376187023e-02
-1.456859275729364134e-01
-2.913718551458727157e-02
3.496462261750471479e-02
4.661949682333965672e-02
9.906643074959675666e-02
1.282036162641840282e-01
1.398584904700189702e-01
1.282036162641840282e-01
8.741155654376187023e-02
6.410180813209204187e-02
1.165487420583491418e-01
1.631682388816887985e-01
1.864779872933586269e-01
-1.515133646758538011e-01
-2.447523583225331145e-01
-1.200452043200996188e+00
-2.896236240149975938e+00
-2.523280265563258684e+00
5.477790876742408832e-01
5.215556207111124110e+00
6.241185137224595891e+00
4.504608880555194261e+00
2.668966193136195209e+00
6.759827039384249669e-01
-4.428852198217266833e-01
-7.575668233792693940e-01
-5.536065247771584374e-01
-2.855444180429553835e-01
-1.981328614991935133e-01
-8.158411944084442702e-02
3.496462261750477030e-02
6.992924523500948508e-02
1.165487420583494194e-02
-2.913718551458727157e-02
0.000000000000000000e+00
-5.244693392625709993e-02
3.496462261750477030e-02
1.165487420583488642e-02
2.913718551458727157e-02
-2.330974841166982836e-02
1.165487420583488642e-02
0.000000000000000000e+00
1.748231130875238515e-02
-2.913718551458727157e-02
-8.741155654376187023e-02
-9.323899364667931344e-02
-1.223761791612665850e-01
-1.398584904700189702e-01
-1.748231130875236849e-01
-2.097877357050284552e-01
-3.205090406604600983e-01
-3.205090406604601538e-01
-1.165487420583491418e-01
-8.741155654376187023e-02
-8.158411944084442702e-02
-4.661949682333965672e-02
0.000000000000000000e+00
0.000000000000000000e+00
0.000000000000000000e+00
0.000000000000000000e+00
0.000000000000000000e+00
1.165487420583491418e-02
7.575668233792694217e-02
6.992924523500947120e-02
2.913718551458728545e-02
5.827437102917457090e-03
2.330974841166982836e-02
6.992924523500947120e-02
9.906643074959677053e-02
8.158411944084438538e-02
1.282036162641840282e-01
3.496462261750474254e-02
-1.165487420583491418e-02
9.323899364667929957e-02
9.323899364667929957e-02
3.496462261750474254e-02
6.410180813209202799e-02
2.913718551458728545e-02
1.282036162641840282e-01
2.214426099108633972e-01
1.631682388816887985e-01
8.158411944084438538e-02
1.165487420583491279e-01
1.806505501904411837e-01
1.806505501904411837e-01
1.165487420583491279e-01
1.398584904700189702e-01
1.165487420583491279e-01
2.330974841166982836e-02
1.165487420583491418e-02
5.244693392625711381e-02
3.496462261750474254e-02
1.165487420583491418e-02
8.741155654376185635e-02
1.165487420583491279e-01
1.165487420583491279e-01
4.661949682333964284e-02
9.906643074959677053e-02
8.158411944084438538e-02
0.000000000000000000e+00
-5.827437102917457090e-03
3.496462261750474254e-02
2.330974841166982836e-02
-5.827437102917457090e-03
4.661949682333964284e-02
-1.165487420583491418e-02
-5.827437102917457090e-03
7.575668233792694217e-02
2.913718551458728545e-02
-1.748231130875237127e-02
1.748231130875237127e-02
8.158411944084439926e-02
7.575668233792692829e-02
1.748231130875237127e-02
-8.158411944084439926e-02
5.244693392625711381e-02
1.165487420583491418e-02
-8.741155654376184247e-02
-8.158411944084439926e-02
-1.165487420583491071e-02
4.079205972042219963e-02
-4.079205972042219963e-02
-1.165487420583491418e-02
1.165487420583491071e-02
-4.079205972042219963e-02
-3.496462261750474254e-02
-3.496462261750474254e-02
5.244693392625711381e-02
-1.748231130875237127e-02
-8.158411944084438538e-02
-1.748231130875237127e-02
3.496462261750474254e-02
5.827437102917457090e-03
1.864779872933586269e-01
-1.165487420583491245e-02
-8.741155654376184247e-02
5.827437102917456396e-02
7.575668233792694217e-02
6.410180813209202799e-02
3.496462261750474254e-02
2.272700470137808126e-01
0.000000000000000000e+00
-1.864779872933585991e-01
-1.456859275729364134e-01
1.165487420583491245e-02
-5.827437102917457090e-03
-8.158411944084439926e-02
-8.158411944084439926e-02
-7.575668233792692829e-02
5.827437102917457090e-03
9.906643074959675666e-02
4.661949682333965672e-02
2.913718551458728198e-02
3.496462261750474254e-02
-5.244693392625710687e-02
3.496462261750474254e-02
2.913718551458727851e-02
0.000000000000000000e+00
0.000000000000000000e+00
-1.748231130875237127e-02
-2.738895438371204971e-01
-7.983588830996916075e-01
-2.453351020328249366e+00
-2.470833331637001695e+00
-6.468455184238376399e-01
4.428852198217266611e+00
6.305286945356687767e+00
5.402034194404482292e+00
3.892727984748860948e+00
1.287863599744758059e+00
-3.554736632779648131e-01
-9.615271219813803505e-01
-9.090801880551232506e-01
-6.235357700121678670e-01
-4.661949682333965672e-01
-4.020931601013044698e-01
-3.379913519692124835e-01
-2.156151728079459262e-01
-1.515133646758538843e-01
-1.573408017787713276e-01
-2.156151728079459262e-01
-9.323899364667931344e-02
-1.223761791612665850e-01
-1.398584904700189702e-01
-1.165487420583491418e-01
-2.039602986021109843e-01
-1.806505501904411559e-01
-1.748231130875237127e-01
-1.806505501904411559e-01
-1.864779872933585991e-01
-2.330974841166982559e-01
-2.913718551458728268e-01
-2.913718551458728268e-01
-2.330974841166982559e-01
-2.622346696312856107e-01
-4.661949682333965672e-01
-4.661949682333965672e-01
-4.487126569246441266e-01
-4.661949682333965672e-01
-4.195754714100569105e-01
-3.962657229983870266e-01
-3.263364777633775971e-01
-2.505797954254506132e-01
-8.158411944084439926e-02
-2.913718551458728545e-02
0.000000000000000000e+00
0.000000000000000000e+00
0.000000000000000000e+00
0.000000000000000000e+00
1.048938678525142554e-01
2.214426099108633417e-01
1.689956759846062417e-01
1.631682388816887985e-01
2.505797954254506688e-01
2.214426099108633417e-01
1.864779872933586269e-01
1.573408017787713553e-01
9.906643074959675666e-02
6.410180813209204187e-02
1.165487420583491418e-01
1.923054243962760701e-01
1.573408017787713553e-01
1.806505501904411837e-01
2.330974841166982836e-01
2.214426099108633417e-01
2.330974841166982836e-01
1.923054243962760701e-01
1.923054243962760701e-01
2.680621067342029984e-01
2.272700470137808404e-01
1.223761791612665850e-01
8.741155654376187023e-02
1.515133646758538566e-01
1.573408017787713553e-01
1.340310533671015270e-01
7.575668233792692829e-02
7.575668233792692829e-02
3.496462261750474254e-02
6.410180813209204187e-02
6.410180813209204187e-02
2.913718551458729933e-02
3.496462261750474254e-02
9.323899364667931344e-02
5.244693392625709993e-02
0.000000000000000000e+00
5.244693392625709993e-02
4.661949682333965672e-02
3.496462261750474254e-02
2.913718551458729933e-02
-1.748231130875235739e-02
5.827437102917459866e-02
4.661949682333965672e-02
0.000000000000000000e+00
4.661949682333965672e-02
2.913718551458729933e-02
6.410180813209204187e-02
5.827437102917470968e-03
-9.323899364667929957e-02
-1.165487420583491418e-02
2.330974841166982836e-02
3.496462261750474254e-02
0.000000000000000000e+00
-1.748231130875238515e-02
-3.496462261750474254e-02
-4.661949682333964284e-02
-1.165487420583491418e-02
0.000000000000000000e+00
-5.827437102917443212e-03
-3.496462261750472866e-02
-6.410180813209201411e-02
-5.827437102917470968e-03
3.496462261750474254e-02
2.330974841166982836e-02
1.340310533671015270e-01
9.323899364667931344e-02
-1.223761791612665989e-01
-3.496462261750474254e-02
-4.661949682333965672e-02
-1.223761791612665850e-01
-1.806505501904411559e-01
-8.158411944084439926e-02
6.410180813209201411e-02
3.496462261750474254e-02
6.410180813209201411e-02
0.000000000000000000e+00
0.000000000000000000e+00
1.748231130875237127e-02
5.827437102917457090e-02
0.000000000000000000e+00
-9.323899364667931344e-02
2.330974841166982836e-02
-7.575668233792694217e-02
-3.613011003808823118e-01
-6.235357700121678670e-01
-2.220253536211550749e+00
-2.925373425664563154e+00
-1.835642687418999053e+00
3.187608095295848987e+00
6.631623423120066363e+00
5.594339618800758807e+00
3.747042057175924867e+00
1.171314857686408750e+00
-5.011595908509013375e-01
-9.615271219813803505e-01
-9.090801880551232506e-01
-5.710888360859107671e-01
-4.778498424392314536e-01
-3.379913519692124835e-01
-2.913718551458728268e-01
-2.971992922487902700e-01
-2.447523583225331700e-01
-2.214426099108633417e-01
-1.981328614991935133e-01
-1.981328614991935133e-01
-1.864779872933586269e-01
-1.806505501904411559e-01
-1.631682388816887985e-01
-1.340310533671014992e-01
-1.573408017787713276e-01
-1.748231130875236849e-01
-1.689956759846062417e-01
-2.097877357050284552e-01
-2.505797954254506132e-01
-3.146816035575426551e-01
-3.146816035575426551e-01
-3.554736632779648686e-01
-3.496462261750473699e-01
-4.487126569246441821e-01
-4.836772795421488969e-01
-4.778498424392314536e-01
-4.778498424392314536e-01
-4.370577827188092401e-01
-4.020931601013045253e-01
-3.554736632779648686e-01
-3.205090406604600983e-01
-2.097877357050284552e-01
-1.573408017787713276e-01
-7.575668233792694217e-02
0.000000000000000000e+00
8.158411944084438538e-02
9.906643074959677053e-02
1.864779872933586269e-01
2.330974841166982836e-01
1.806505501904411282e-01
1.923054243962760701e-01
2.097877357050284552e-01
1.981328614991935133e-01
1.981328614991935133e-01
2.156151728079458985e-01
2.097877357050284552e-01
1.748231130875236849e-01
1.107213049554316847e-01
8.741155654376185635e-02
1.165487420583491279e-01
1.398584904700189702e-01
1.107213049554316847e-01
1.282036162641840282e-01
1.923054243962760701e-01
1.515133646758538566e-01
9.323899364667929957e-02
1.515133646758538566e-01
2.097877357050284552e-01
2.097877357050284552e-01
2.039602986021109565e-01
2.330974841166982836e-01
2.097877357050284552e-01
1.631682388816887985e-01
1.864779872933586269e-01
1.864779872933586269e-01
1.573408017787713553e-01
1.107213049554316847e-01
1.340310533671015270e-01
1.048938678525142137e-01
9.323899364667929957e-02
1.165487420583491279e-01
5.827437102917457090e-03
5.827437102917457090e-03
5.244693392625711381e-02
6.410180813209202799e-02
4.661949682333965672e-02
9.906643074959677053e-02
2.330974841166982836e-02
2.913718551458728545e-02
-1.165487420583491418e-02
5.827437102917457090e-03
-1.748231130875237127e-02
2.330974841166982836e-02
1.165487420583491418e-02
0.000000000000000000e+00
-7.575668233792694217e-02
-4.079205972042219963e-02
-1.165487420583491418e-02
1.748231130875237127e-02
5.827437102917457090e-03
-4.079205972042219269e-02
0.000000000000000000e+00
-1.165487420583491418e-02
5.244693392625711381e-02
1.165487420583491418e-02
-1.748231130875237127e-02
-5.827437102917457090e-03
-5.827437102917457090e-03
5.827437102917457090e-03
-2.913718551458728198e-02
5.827437102917456396e-02
9.906643074959677053e-02
3.496462261750474254e-02
-7.575668233792695605e-02
-3.496462261750474254e-02
-4.079205972042219963e-02
-1.107213049554316708e-01
-1.048938678525142276e-01
-2.913718551458729933e-02
0.000000000000000000e+00
-5.827437102917457090e-03
3.496462261750474254e-02
0.000000000000000000e+00
2.913718551458728545e-02
0.000000000000000000e+00
-2.330974841166982836e-02
2.913718551458728545e-02
-1.165487420583491418e-02
2.913718551458728545e-02
1.748231130875237127e-02
-2.622346696312855552e-01
-4.370577827188092956e-01
-1.730748819566484631e+00
-3.356603771280454840e+00
-2.942855736973315484e+00
1.043111241422224778e+00
5.705060923756190228e+00
6.043052275725402822e+00
4.137480343071394451e+00
1.684129322743144863e+00
-2.389249212196157268e-01
-9.731819961872152369e-01
-8.915978767463709209e-01
-5.594339618800758807e-01
-3.846108487925521402e-01
-2.971992922487902700e-01
-2.680621067342029984e-01
-2.097877357050284552e-01
-1.689956759846062417e-01
-1.864779872933586269e-01
-2.039602986021109565e-01
-1.398584904700189702e-01
-1.456859275729364134e-01
-8.158411944084438538e-02
-6.992924523500947120e-02
-1.456859275729364134e-01
-1.223761791612665989e-01
-1.107213049554316847e-01
-1.689956759846062417e-01
-1.864779872933586269e-01
-1.864779872933586269e-01
-1.864779872933586269e-01
-1.981328614991935133e-01
-2.505797954254506132e-01
-2.389249212196157268e-01
-3.438187890721299267e-01
-3.088541664546252119e-01
-2.971992922487902700e-01
-2.971992922487902700e-01
-2.855444180429553835e-01
-4.079205972042219686e-01
-2.272700470137807849e-01
-1.864779872933586269e-01
-7.575668233792694217e-02
-1.165487420583491418e-02
0.000000000000000000e+00
6.410180813209201411e-02
1.107213049554316708e-01
3.496462261750473699e-01
5.244693392625711104e-01
1.748231130875236849e-01
1.223761791612665850e-01
1.573408017787713276e-01
1.573408017787713276e-01
1.573408017787713276e-01
1.340310533671014992e-01
1.165487420583491279e-01
7.575668233792692829e-02
1.107213049554316708e-01
1.107213049554316708e-01
9.906643074959675666e-02
1.340310533671014992e-01
5.827437102917456396e-02
5.827437102917456396e-02
1.515133646758538566e-01
6.410180813209201411e-02
1.223761791612665850e-01
1.398584904700189702e-01
1.107213049554316708e-01
1.398584904700189702e-01
9.323899364667929957e-02
7.575668233792692829e-02
1.806505501904411559e-01
1.340310533671014992e-01
9.323899364667929957e-02
5.827437102917456396e-02
1.515133646758538566e-01
1.515133646758538566e-01
1.107213049554316708e-01
5.827437102917456396e-02
9.906643074959675666e-02
1.165487420583491279e-01
1.165487420583491279e-01
6.992924523500947120e-02
4.661949682333964978e-02
8.741155654376184247e-02
5.827437102917457090e-03
2.913718551458728545e-02
6.410180813209202799e-02
0.000000000000000000e+00
-4.079205972042219269e-02
-6.992924523500948508e-02
-4.079205972042219269e-02
-5.827437102917456396e-02
-2.330974841166982142e-02
-4.079205972042219269e-02
-6.410180813209201411e-02
-7.575668233792692829e-02
-5.827437102917456396e-02
-8.741155654376184247e-02
-7.575668233792692829e-02
5.827437102917457090e-03
-1.165487420583490724e-02
-5.244693392625710687e-02
-6.992924523500948508e-02
-4.079205972042219269e-02
-5.244693392625710687e-02
-2.913718551458728545e-02
-5.827437102917457090e-03
-3.496462261750474254e-02
-3.496462261750474254e-02
0.000000000000000000e+00
-1.748231130875237127e-02
-3.496462261750474254e-02
-2.330974841166982836e-02
-2.330974841166982836e-02
2.913718551458727851e-02
0.000000000000000000e+00
-2.330974841166982836e-02
-2.913718551458728545e-02
-5.827437102917457090e-03
4.079205972042219269e-02
-1.165487420583491418e-02
2.330974841166982836e-02
1.748231130875237127e-02
4.661949682333964978e-02
4.661949682333964978e-02
4.079205972042219269e-02
4.661949682333964978e-02
1.107213049554316708e-01
1.631682388816887985e-01
5.827437102917456396e-02
-7.575668233792695605e-02
4.079205972042219269e-02
-1.748231130875237127e-02
-5.244693392625712769e-02
-6.992924523500948508e-02
-1.748231130875237127e-02
3.496462261750473560e-02
6.410180813209201411e-02
0.000000000000000000e+00
-1.748231130875237127e-02
4.836772795421488969e-01
4.661949682333964978e-02
0.000000000000000000e+00
1.282036162641840282e-01
4.661949682333964978e-02
1.048938678525142137e-01
2.097877357050284552e-01
-2.097877357050284552e-01
-3.846108487925521402e-01
-1.509306209655621345e+00
-3.187608095295848543e+00
-2.634001570518690549e+00
7.867040088938566100e-01
5.512755499359913713e+00
5.874056599740796081e+00
3.886900547645943504e+00
2.016293237609439792e+00
1.573408017787713276e-01
-6.410180813209201967e-01
-6.818101410413424102e-01
-3.787834116896346970e-01
-2.505797954254506132e-01
-1.631682388816887985e-01
-3.496462261750474254e-02
-2.913718551458728545e-02
-9.906643074959677053e-02
-4.661949682333965672e-02
1.165487420583490724e-02
-1.165487420583491418e-02
-5.244693392625710687e-02
-3.496462261750473560e-02
0.000000000000000000e+00
3.496462261750474254e-02
1.165487420583491418e-02
3.496462261750474254e-02
-3.496462261750473560e-02
-1.748231130875236433e-02
-5.827437102917456396e-02
-5.827437102917456396e-02
-6.410180813209201411e-02
-1.107213049554316708e-01
-1.515133646758538566e-01
-1.398584904700189424e-01
-1.515133646758538566e-01
-2.330974841166982836e-01
-2.214426099108633417e-01
-1.573408017787713276e-01
-9.323899364667931344e-02
-1.048938678525142276e-01
0.000000000000000000e+00
0.000000000000000000e+00
0.000000000000000000e+00
1.107213049554316986e-01
-2.913718551458732708e-02
1.165487420583488642e-02
8.158411944084437151e-02
5.827437102917454315e-02
6.992924523500942957e-02
6.992924523500942957e-02
6.410180813209198636e-02
7.575668233792692829e-02
6.410180813209198636e-02
8.741155654376181472e-02
2.330974841166982836e-02
7.575668233792692829e-02
4.079205972042215800e-02
1.748231130875232964e-02
4.079205972042215800e-02
8.741155654376181472e-02
7.575668233792692829e-02
5.244693392625709993e-02
4.079205972042215800e-02
1.165487420583488642e-02
4.661949682333965672e-02
8.158411944084437151e-02
1.398584904700189147e-01
9.906643074959675666e-02
8.741155654376181472e-02
1.165487420583490863e-01
1.048938678525141999e-01
1.573408017787712998e-01
1.282036162641840282e-01
6.992924523500942957e-02
1.048938678525141999e-01
1.340310533671014714e-01
1.165487420583490863e-01
7.575668233792692829e-02
1.340310533671014714e-01
8.741155654376181472e-02
8.158411944084437151e-02
1.456859275729364134e-01
9.906643074959675666e-02
5.244693392625709993e-02
-2.330974841166982836e-02
6.410180813209198636e-02
3.496462261750471479e-02
2.330974841166982836e-02
4.079205972042215800e-02
2.330974841166982836e-02
-1.748231130875238515e-02
1.165487420583488642e-02
-1.748231130875238515e-02
1.165487420583494194e-02
0.000000000000000000e+00
-5.827437102917443212e-03
0.000000000000000000e+00
5.827437102917443212e-03
0.000000000000000000e+00
-5.827437102917443212e-03
1.748231130875238515e-02
0.000000000000000000e+00
-1.165487420583494194e-02
0.000000000000000000e+00
-5.827437102917457090e-02
-1.165487420583494194e-02
-5.827437102917443212e-03
6.410180813209204187e-02
1.165487420583488642e-02
-1.748231130875238515e-02
-1.165487420583494194e-02
-5.827437102917443212e-03
-3.496462261750474254e-02
-1.748231130875238515e-02
4.079205972042221351e-02
0.000000000000000000e+00
0.000000000000000000e+00
1.748231130875238515e-02
2.913718551458727157e-02
0.000000000000000000e+00
1.748231130875238515e-02
5.827437102917443212e-03
1.165487420583488642e-02
-5.827437102917443212e-03
-5.827437102917498724e-03
5.827437102917443212e-03
4.661949682333965672e-02
6.992924523500948508e-02
5.827437102917443212e-03
8.741155654376181472e-02
8.741155654376187023e-02
0.000000000000000000e+00
-1.340310533671015270e-01
-2.680621067342029984e-01
-2.797169809400379403e-01
-1.864779872933585991e-01
-1.282036162641840282e-01
-1.107213049554316847e-01
-1.165487420583491279e-01
-2.330974841166982836e-02
2.330974841166982836e-02
2.330974841166982836e-02
0.000000000000000000e+00
2.330974841166982836e-02
-4.079205972042218575e-02
0.000000000000000000e+00
4.661949682333965672e-02
9.323899364667931344e-02
-1.165487420583491418e-02
4.661949682333965672e-02
-2.505797954254506132e-01
-4.487126569246441821e-01
-1.451031838626446691e+00
-3.175953221090014100e+00
-2.843789306223718949e+00
2.097877357050284275e-01
5.215556207111123221e+00
6.200393077504174677e+00
4.277338833541413976e+00
2.564072325283680787e+00
5.361242134684059968e-01
-4.487126569246441266e-01
-5.477790876742409942e-01
-2.913718551458728268e-01
-1.806505501904411282e-01
-5.827437102917454315e-02
3.496462261750477030e-02
3.496462261750477030e-02
5.827437102917498724e-03
2.330974841166982836e-02
0.000000000000000000e+00
5.827437102917498724e-03
7.575668233792695605e-02
8.741155654376187023e-02
-5.827437102917443212e-03
-3.496462261750471479e-02
-2.913718551458727157e-02
-9.323899364667931344e-02
-1.456859275729364134e-01
-9.323899364667931344e-02
-1.340310533671014714e-01
-1.864779872933585714e-01
-1.864779872933585714e-01
-2.913718551458727712e-01
-2.389249212196156713e-01
-3.088541664546252119e-01
-3.787834116896346415e-01
-4.312303456158918524e-01
-4.079205972042219686e-01
-3.554736632779648686e-01
-3.146816035575427106e-01
-2.564072325283680565e-01
-2.330974841166982836e-01
-1.573408017787712998e-01
-1.223761791612665850e-01
-9.323899364667931344e-02
-6.992924523500948508e-02
2.913718551458727157e-02
8.741155654376184247e-02
9.323899364667928569e-02
9.323899364667931344e-02
1.456859275729364134e-01
1.573408017787713553e-01
1.806505501904411837e-01
1.748231130875236849e-01
7.575668233792698381e-02
1.107213049554316986e-01
1.748231130875237405e-01
9.906643074959681217e-02
9.906643074959675666e-02
1.048938678525142554e-01
1.048938678525141999e-01
9.323899364667931344e-02
1.223761791612665850e-01
1.340310533671014714e-01
9.323899364667931344e-02
1.282036162641840282e-01
1.981328614991935133e-01
1.631682388816887985e-01
1.689956759846062417e-01
1.689956759846062417e-01
1.282036162641840282e-01
5.827437102917454315e-02
1.048938678525141999e-01
1.165487420583491418e-01
6.410180813209198636e-02
-1.165487420583494194e-02
4.079205972042215800e-02
7.575668233792692829e-02
1.340310533671014714e-01
3.496462261750471479e-02
-3.496462261750477030e-02
-1.165487420583494194e-02
5.244693392625709993e-02
5.827437102917459866e-02
4.079205972042221351e-02
-3.496462261750471479e-02
-5.244693392625715544e-02
-6.410180813209204187e-02
1.748231130875238515e-02
-2.330974841166982836e-02
-8.741155654376187023e-02
1.748231130875238515e-02
1.748231130875232964e-02
4.661949682333965672e-02
1.165487420583494194e-02
5.827437102917443212e-03
-9.906643074959675666e-02
-4.661949682333965672e-02
0.000000000000000000e+00
-2.913718551458721606e-02
-5.244693392625709993e-02
-6.992924523500954059e-02
4.195754714100568550e-01
4.661949682333960121e-02
-4.079205972042221351e-02
-2.330974841166988387e-02
4.312303456158918524e-01
-5.827437102917454315e-02
-4.661949682333965672e-02
-8.158411944084431600e-02
-1.748231130875232964e-02
-5.827437102917443212e-03
6.992924523500954059e-02
5.827437102917443212e-03
6.992924523500954059e-02
-2.913718551458721606e-02
-2.913718551458721606e-02
3.496462261750477030e-02
0.000000000000000000e+00
1.107213049554316986e-01
6.410180813209204187e-02
-4.079205972042221351e-02
-1.165487420583488642e-02
6.410180813209204187e-02
1.165487420583491418e-01
7.575668233792698381e-02
-5.827437102917443212e-03
0.000000000000000000e+00
0.000000000000000000e+00
1.107213049554316986e-01
1.165487420583491418e-01
4.079205972042221351e-02
-1.689956759846061862e-01
-3.729559745867172538e-01
-2.913718551458728268e-01
-1.340310533671015270e-01
-8.741155654376187023e-02
-2.097877357050283997e-01
-1.107213049554316431e-01
2.330974841166988387e-02
5.244693392625709993e-02
-4.079205972042221351e-02
0.000000000000000000e+00
1.748231130875244066e-02
5.827437102917443212e-03
7.575668233792698381e-02
4.661949682333965672e-02
4.661949682333965672e-02
7.575668233792698381e-02
4.079205972042221351e-02
-2.156151728079458429e-01
-4.079205972042219130e-01
-1.381102593391437150e+00
-2.808824683606214290e+00
-2.319319966961147728e+00
1.072248426936812216e+00
5.326277512066555531e+00
5.897366348152466742e+00
4.708569179157304774e+00
2.703930815753699868e+00
5.710888360859107671e-01
-6.876375781442598534e-01
-9.906643074959675666e-01
-8.566332541288661506e-01
-6.643278297325900805e-01
-4.428852198217266833e-01
-3.321639148662950403e-01
-3.146816035575425996e-01
-2.389249212196157268e-01
-1.398584904700189702e-01
-1.456859275729364134e-01
-2.156151728079458429e-01
-2.564072325283680565e-01
-2.680621067342029429e-01
-1.456859275729364134e-01
-1.923054243962760701e-01
1.981328614991935688e-01
-4.195754714100569105e-01
-1.864779872933586269e-01
-2.097877357050283997e-01
-3.846108487925521402e-01
-3.496462261750473699e-01
-2.971992922487902700e-01
-2.913718551458728268e-01
-3.613011003808822563e-01
-4.020931601013044698e-01
-5.244693392625709993e-01
-5.885711473946630967e-01
-5.186419021596535561e-01
-4.079205972042219130e-01
-2.971992922487902700e-01
-4.020931601013044698e-01
-3.554736632779648131e-01
-1.631682388816887430e-01
-7.575668233792687278e-02
-9.906643074959675666e-02
-4.661949682333965672e-02
0.000000000000000000e+00
0.000000000000000000e+00
0.000000000000000000e+00
0.000000000000000000e+00
1.165487420583491418e-01
1.165487420583491418e-01
2.330974841166982836e-02
4.079205972042219963e-02
1.165487420583491418e-02
-7.575668233792694217e-02
-1.107213049554316847e-01
-5.827437102917457090e-03
1.165487420583491418e-02
2.330974841166982836e-02
-1.748231130875237127e-02
-6.410180813209202799e-02
-5.244693392625711381e-02
-1.748231130875237127e-02
2.330974841166982142e-02
4.079205972042219963e-02
7.575668233792694217e-02
1.748231130875237127e-02
3.496462261750474254e-02
1.165487420583491418e-01
1.165487420583491418e-01
2.330974841166982836e-02
5.827437102917457090e-02
1.165487420583491418e-02
-5.827437102917457090e-03
1.748231130875237127e-02
0.000000000000000000e+00
-2.330974841166982142e-02
2.330974841166982836e-02
3.496462261750474254e-02
0.000000000000000000e+00
-1.748231130875237127e-02
-5.827437102917456396e-02
-6.992924523500948508e-02
-5.827437102917456396e-02
0.000000000000000000e+00
1.165487420583491418e-02
0.000000000000000000e+00
-1.165487420583491418e-02
-5.827437102917456396e-02
3.496462261750474254e-02
4.661949682333965672e-02
-5.827437102917456396e-02
-4.079205972042219269e-02
1.165487420583491418e-01
9.906643074959675666e-02
-7.575668233792692829e-02
-6.410180813209201411e-02
6.992924523500948508e-02
5.827437102917457090e-02
-4.661949682333964978e-02
-7.575668233792692829e-02
-3.496462261750473560e-02
-4.079205972042219269e-02
2.913718551458728198e-02
1.165487420583491418e-02
2.330974841166982836e-02
8.158411944084439926e-02
1.748231130875237127e-02
2.330974841166982836e-02
-1.165487420583491418e-02
-2.330974841166982836e-02
5.827437102917457090e-02
4.079205972042219963e-02
8.158411944084439926e-02
9.906643074959675666e-02
1.107213049554316708e-01
3.496462261750474254e-02
-8.741155654376184247e-02
-4.661949682333964978e-02
-1.165487420583491418e-02
-5.244693392625710687e-02
-4.079205972042219269e-02
0.000000000000000000e+00
-2.913718551458727851e-02
-5.827437102917457090e-03
5.244693392625711381e-02
1.282036162641840560e-01
9.323899364667931344e-02
8.158411944084439926e-02
4.020931601013045253e-01
1.107213049554316708e-01
6.992924523500948508e-02
1.165487420583491418e-01
0.000000000000000000e+00
-2.564072325283681120e-01
-3.962657229983870821e-01
-1.823987813213163944e+00
-2.913718551458728712e+00
-2.045430423124027453e+00
2.191116350696963533e+00
6.124636395166247027e+00
5.792472480299951876e+00
4.294821144850165417e+00
2.004638363403604906e+00
3.496462261750474254e-02
-7.517393862763519508e-01
-8.391509428201138210e-01
-5.885711473946630967e-01
-3.554736632779648686e-01
-2.505797954254506688e-01
-2.389249212196157268e-01
-2.330974841166982836e-01
-2.097877357050284552e-01
-1.864779872933586269e-01
-1.398584904700189702e-01
-1.923054243962760701e-01
-1.515133646758538843e-01
-1.165487420583491418e-01
-1.748231130875237127e-01
-1.282036162641840560e-01
-1.165487420583491418e-01
-6.992924523500948508e-02
-1.456859275729364134e-01
-1.631682388816887985e-01
-1.864779872933586269e-01
-2.505797954254506688e-01
-2.389249212196157268e-01
-2.564072325283681120e-01
-2.855444180429553835e-01
-3.030267293517077687e-01
-3.438187890721299822e-01
-4.370577827188092401e-01
-4.312303456158917969e-01
-4.312303456158917969e-01
-4.428852198217267389e-01
-3.962657229983870821e-01
-2.797169809400379403e-01
-1.864779872933586269e-01
-1.282036162641840560e-01
-5.827437102917456396e-02
0.000000000000000000e+00
0.000000000000000000e+00
0.000000000000000000e+00
5.827437102917443212e-03
1.923054243962760979e-01
1.864779872933585991e-01
2.156151728079458707e-01
4.195754714100569105e-01
1.223761791612666128e-01
1.165487420583491140e-01
1.689956759846062695e-01
1.573408017787713276e-01
1.165487420583491140e-01
7.575668233792692829e-02
1.223761791612666128e-01
1.282036162641840560e-01
1.689956759846062695e-01
1.981328614991935411e-01
6.992924523500948508e-02
1.398584904700189424e-01
1.398584904700189424e-01
1.631682388816887708e-01
1.689956759846062695e-01
1.107213049554316708e-01
1.282036162641840560e-01
1.689956759846062695e-01
2.214426099108633694e-01
1.689956759846062695e-01
1.631682388816887708e-01
1.282036162641840560e-01
1.340310533671014992e-01
1.573408017787713276e-01
1.223761791612666128e-01
3.496462261750474254e-02
4.079205972042218575e-02
6.410180813209201411e-02
1.282036162641840560e-01
1.282036162641840560e-01
8.741155654376184247e-02
1.048938678525142276e-01
6.992924523500948508e-02
5.244693392625709993e-02
4.661949682333965672e-02
0.000000000000000000e+00
0.000000000000000000e+00
2.913718551458727157e-02
-3.496462261750474254e-02
1.748231130875235739e-02
3.496462261750474254e-02
2.330974841166982836e-02
-4.079205972042219963e-02
0.000000000000000000e+00
2.913718551458728545e-02
2.330974841166981448e-02
5.827437102917457090e-03
5.827437102917457090e-03
-3.496462261750474254e-02
0.000000000000000000e+00
-2.913718551458728545e-02
-2.330974841166982836e-02
0.000000000000000000e+00
0.000000000000000000e+00
-2.913718551458728545e-02
-4.079205972042219963e-02
1.165487420583491418e-02
0.000000000000000000e+00
3.496462261750474254e-02
-8.158411944084439926e-02
0.000000000000000000e+00
2.913718551458728545e-02
5.827437102917457090e-02
6.410180813209201411e-02
0.000000000000000000e+00
-1.282036162641840560e-01
-7.575668233792694217e-02
-8.741155654376185635e-02
-1.864779872933586269e-01
-1.573408017787713276e-01
-1.515133646758538566e-01
-9.906643074959675666e-02
-3.496462261750474254e-02
-9.323899364667931344e-02
-2.913718551458728545e-02
-2.330974841166982836e-02
-2.330974841166982836e-02
-3.496462261750474254e-02
0.000000000000000000e+00
0.000000000000000000e+00
-1.165487420583491418e-02
-5.827437102917457090e-03
-1.573408017787713276e-01
-3.904382858954695834e-01
-1.252898977127253177e+00
-3.047749604825829906e+00
-3.018612419311242245e+00
-9.323899364667931344e-02
4.609502748407708239e+00
6.334424130871275871e+00
4.516263754761029148e+00
2.290182781446560512e+00
1.864779872933586269e-01
-8.391509428201138210e-01
-8.508058170259487074e-01
-4.953321537479838388e-01
-5.302967763654885536e-01
-1.864779872933586269e-01
-3.438187890721299267e-01
-1.282036162641840560e-01
-1.864779872933586269e-01
-1.748231130875237127e-02
0.000000000000000000e+00
-5.827437102917457090e-03
2.913718551458728545e-02
1.165487420583491418e-02
-1.165487420583491418e-02
3.496462261750474254e-02
8.158411944084439926e-02
8.158411944084439926e-02
5.827437102917457090e-03
-1.748231130875237127e-02
5.827437102917457090e-03
2.913718551458728545e-02
5.827437102917455702e-02
2.913718551458728545e-02
-3.496462261750474254e-02
-4.079205972042219963e-02
-7.575668233792694217e-02
-1.340310533671014992e-01
-1.223761791612665989e-01
-1.398584904700189424e-01
-1.398584904700189702e-01
-5.827437102917457090e-02
0.000000000000000000e+00
0.000000000000000000e+00
0.000000000000000000e+00
0.000000000000000000e+00
0.000000000000000000e+00
0.000000000000000000e+00
0.000000000000000000e+00
7.575668233792698381e-02
5.244693392625709993e-02
7.575668233792687278e-02
3.496462261750465927e-02
1.748231130875232964e-02
-1.165487420583488642e-02
2.330974841166977285e-02
2.913718551458732708e-02
0.000000000000000000e+00
-4.661949682333965672e-02
-1.748231130875232964e-02
0.000000000000000000e+00
4.079205972042221351e-02
0.000000000000000000e+00
5.827437102917454315e-02
4.079205972042221351e-02
0.000000000000000000e+00
-2.330974841166977285e-02
-2.913718551458732708e-02
8.741155654376187023e-02
6.410180813209198636e-02
5.827437102917454315e-02
1.223761791612666405e-01
9.323899364667931344e-02
1.223761791612666405e-01
2.156151728079459540e-01
1.923054243962760701e-01
1.398584904700189702e-01
1.340310533671015270e-01
1.340310533671015270e-01
3.787834116896346970e-01
1.456859275729364134e-01
1.398584904700189702e-01
1.107213049554316431e-01
1.456859275729364134e-01
9.906643074959675666e-02
-5.827437102917443212e-03
9.323899364667931344e-02
1.165487420583490863e-01
6.410180813209198636e-02
5.827437102917454315e-02
6.410180813209198636e-02
5.827437102917454315e-02
5.827437102917454315e-02
4.661949682333965672e-02
5.827437102917454315e-02
4.661949682333965672e-02
2.971992922487902700e-01
9.906643074959675666e-02
5.244693392625709993e-02
4.661949682333965672e-02
2.330974841166977285e-02
-4.661949682333965672e-02
-5.827437102917443212e-03
5.827437102917443212e-03
-9.906643074959675666e-02
-4.079205972042221351e-02
5.827437102917454315e-02
2.330974841166977285e-02
-1.165487420583488642e-02
3.496462261750465927e-02
-5.827437102917554235e-03
-4.661949682333965672e-02
-6.410180813209209738e-02
-4.079205972042221351e-02
2.330974841166988387e-02
-5.827437102917443212e-03
5.827437102917554235e-03
3.496462261750477030e-02
5.827437102917443212e-03
-1.748231130875232964e-02
1.165487420583499745e-02
1.165487420583499745e-02
6.410180813209198636e-02
5.827437102917443212e-03
0.000000000000000000e+00
0.000000000000000000e+00
-1.165487420583488642e-02
-1.748231130875232964e-02
2.913718551458732708e-02
1.165487420583488642e-02
-1.748231130875232964e-02
2.330974841166977285e-02
5.244693392625709993e-02
1.748231130875232964e-02
-1.748231130875232964e-02
-2.913718551458727157e-02
1.748231130875232964e-02
-8.741155654376187023e-02
-1.107213049554316708e-01
-1.282036162641840560e-01
-5.827437102917459866e-02
0.000000000000000000e+00
2.913718551458727157e-02
2.913718551458727157e-02
1.165487420583488642e-02
1.165487420583488642e-02
-5.827437102917498724e-03
-4.079205972042215800e-02
0.000000000000000000e+00
0.000000000000000000e+00
-1.748231130875238515e-02
-6.992924523500948508e-02
-3.787834116896346970e-01
-5.594339618800758807e-01
-2.278527907240725625e+00
-3.240055029222105976e+00
-2.301837655652395398e+00
2.721413127062452197e+00
6.433490561620872406e+00
5.501100625154078827e+00
3.688767686146749991e+00
1.410239778906024366e+00
-1.748231130875237127e-01
-6.585003926296726373e-01
-5.477790876742409942e-01
-2.855444180429553835e-01
-1.282036162641840560e-01
-3.496462261750473560e-02
-4.661949682333964978e-02
-6.410180813209201411e-02
-2.913718551458727851e-02
2.913718551458728545e-02
1.748231130875237127e-02
2.330974841166982836e-02
7.575668233792694217e-02
2.330974841166982836e-02
-5.827437102917457090e-03
-2.913718551458727851e-02
-2.330974841166982142e-02
-4.079205972042219963e-02
-3.496462261750474254e-02
-6.410180813209202799e-02
-1.631682388816887985e-01
-1.631682388816887985e-01
-1.923054243962760701e-01
-1.864779872933585991e-01
-2.097877357050284275e-01
-2.156151728079459262e-01
-3.030267293517077132e-01
-2.564072325283680565e-01
-2.680621067342029984e-01
-2.156151728079458985e-01
-1.923054243962760701e-01
-9.323899364667931344e-02
-1.282036162641840560e-01
-3.496462261750474254e-02
1.748231130875237127e-02
7.575668233792692829e-02
8.158411944084439926e-02
9.323899364667929957e-02
1.515133646758538566e-01
1.340310533671014992e-01
1.689956759846062417e-01
1.223761791612665850e-01
1.282036162641840560e-01
9.323899364667929957e-02
8.158411944084439926e-02
9.906643074959675666e-02
8.741155654376184247e-02
7.575668233792692829e-02
3.496462261750474254e-02
6.410180813209201411e-02
5.827437102917456396e-02
-5.827437102917457090e-03
6.410180813209201411e-02
5.827437102917456396e-02
8.158411944084439926e-02
5.827437102917457090e-03
0.000000000000000000e+00
4.661949682333965672e-02
4.079205972042219963e-02
4.661949682333965672e-02
5.827437102917457090e-02
-4.661949682333965672e-02
6.992924523500948508e-02
6.410180813209202799e-02
4.661949682333965672e-02
-2.330974841166982836e-02
-2.913718551458727157e-02
1.165487420583491418e-02
0.000000000000000000e+00
0.000000000000000000e+00
-1.748231130875235739e-02
-1.748231130875238515e-02
2.913718551458727157e-02
0.000000000000000000e+00
-6.410180813209204187e-02
-5.827437102917443212e-03
2.447523583225331978e-01
0.000000000000000000e+00
-1.748231130875232964e-02
0.000000000000000000e+00
0.000000000000000000e+00
-2.913718551458727157e-02
1.748231130875232964e-02
-5.827437102917454315e-02
0.000000000000000000e+00
4.079205972042215800e-02
2.330974841166982836e-02
0.000000000000000000e+00
0.000000000000000000e+00
2.330974841166982836e-02
-5.827437102917443212e-03
0.000000000000000000e+00
5.827437102917443212e-03
-1.748231130875232964e-02
1.165487420583488642e-02
-5.827437102917465417e-02
-3.496462261750477030e-02
-5.827437102917443212e-03
5.244693392625709993e-02
1.748231130875244066e-02
-8.158411944084431600e-02
-4.079205972042221351e-02
0.000000000000000000e+00
0.000000000000000000e+00
-5.244693392625709993e-02
-5.827437102917454315e-02
-4.079205972042221351e-02
5.244693392625709993e-02
3.496462261750465927e-02
-2.913718551458732708e-02
-1.165487420583488642e-02
0.000000000000000000e+00
2.330974841166988387e-02
-1.165487420583488642e-02
2.330974841166988387e-02
-1.748231130875232964e-02
1.748231130875244066e-02
1.165487420583491973e-01
8.741155654376187023e-02
8.741155654376187023e-02
2.330974841166977285e-02
-9.906643074959675666e-02
-2.680621067342030539e-01
-1.864779872933586269e-01
-2.039602986021109565e-01
-1.864779872933586269e-01
-2.330974841166982836e-01
-1.748231130875237405e-01
0.000000000000000000e+00
2.913718551458721606e-02
6.992924523500942957e-02
6.992924523500942957e-02
1.165487420583488642e-02
-1.165487420583499745e-02
-6.410180813209209738e-02
1.748231130875244066e-02
2.913718551458732708e-02
2.913718551458732708e-02
0.000000000000000000e+00
-3.088541664546252674e-01
-4.370577827188092401e-01
-1.474341587038116241e+00
-3.216745280810436203e+00
-2.773860060988709186e+00
5.069870279538187807e-01
5.186419021596536894e+00
5.809954791608704205e+00
3.863590799234274176e+00
2.080395045741532112e+00
1.398584904700189702e-01
-7.808765717909392778e-01
-8.682881283347009260e-01
-6.177083329092504238e-01
-4.020931601013045809e-01
-3.496462261750473699e-01
-2.738895438371203861e-01
-2.156151728079458429e-01
-3.205090406604601538e-01
-2.622346696312854997e-01
-2.447523583225331700e-01
-2.097877357050283997e-01
-2.389249212196157268e-01
-1.573408017787712998e-01
-1.748231130875236294e-01
-1.748231130875236294e-01
-1.456859275729364134e-01
-2.097877357050283997e-01
-2.156151728079458429e-01
-3.263364777633775971e-01
-3.030267293517077132e-01
-3.379913519692124835e-01
-4.079205972042220241e-01
-3.846108487925520292e-01
-4.370577827188092401e-01
-4.545400940275615698e-01
-5.477790876742408832e-01
-4.661949682333964562e-01
-4.895047166450662290e-01
-4.428852198217266833e-01
-3.846108487925520292e-01
-4.020931601013045809e-01
-4.487126569246441266e-01
-3.438187890721299267e-01
-2.564072325283680565e-01
-1.223761791612665295e-01
-6.410180813209198636e-02
3.496462261750465927e-02
2.913718551458721606e-02
6.410180813209198636e-02
0.000000000000000000e+00
4.661949682333965672e-02
1.048938678525141999e-01
9.323899364667931344e-02
9.906643074959686768e-02
1.456859275729363579e-01
-3.496462261750477030e-02
0.000000000000000000e+00
4.079205972042221351e-02
2.913718551458732708e-02
-1.748231130875232964e-02
-2.330974841166988387e-02
-7.575668233792687278e-02
-6.992924523500942957e-02
-5.827437102917454315e-02
5.827437102917443212e-03
2.913718551458732708e-02
2.330974841166988387e-02
4.079205972042221351e-02
1.282036162641840837e-01
1.165487420583491418e-01
1.223761791612665850e-01
6.992924523500954059e-02
4.661949682333965672e-02
5.244693392625709993e-02
2.913718551458732708e-02
1.748231130875244066e-02
1.165487420583499745e-02
4.661949682333965672e-02
-2.330974841166988387e-02
2.913718551458721606e-02
2.913718551458721606e-02
2.913718551458721606e-02
-5.827437102917554235e-03
-4.079205972042221351e-02
-5.827437102917465417e-02
-4.079205972042221351e-02
-5.244693392625721096e-02
-2.330974841166988387e-02
-5.244693392625721096e-02
-7.575668233792698381e-02
2.330974841166977285e-02
-8.741155654376187023e-02
-1.165487420583491973e-01
-4.661949682333965672e-02
-5.827437102917465417e-02
-1.165487420583491973e-01
-5.827437102917465417e-02
-8.158411944084442702e-02
-4.079205972042221351e-02
4.079205972042221351e-02
3.496462261750477030e-02
1.748231130875232964e-02
-1.165487420583488642e-02
-1.165487420583490863e-01
-2.330974841166988387e-02
1.748231130875232964e-02
5.244693392625709993e-02
3.496462261750477030e-02
1.748231130875238515e-02
-1.806505501904411837e-01
5.827437102917443212e-03
-3.496462261750477030e-02
4.079205972042215800e-02
5.244693392625709993e-02
3.496462261750471479e-02
0.000000000000000000e+00
5.827437102917443212e-03
0.000000000000000000e+00
7.575668233792692829e-02
2.913718551458727157e-02
-1.748231130875238515e-02
7.575668233792692829e-02
9.323899364667925793e-02
4.079205972042215800e-02
1.748231130875232964e-02
7.575668233792692829e-02
1.573408017787712998e-01
9.323899364667925793e-02
8.741155654376181472e-02
5.244693392625709993e-02
-9.323899364667931344e-02
-2.039602986021109565e-01
-1.107213049554317541e-01
-9.323899364667931344e-02
-7.575668233792698381e-02
-1.048938678525141999e-01
-8.741155654376187023e-02
6.410180813209198636e-02
1.107213049554316431e-01
1.282036162641840282e-01
1.573408017787712998e-01
8.741155654376181472e-02
0.000000000000000000e+00
1.748231130875232964e-02
1.282036162641840282e-01
3.496462261750471479e-02
1.223761791612665850e-01
9.323899364667931344e-02
-1.981328614991935133e-01
-3.379913519692124835e-01
-1.625854951713970431e+00
-2.832134432017883618e+00
-1.870607310036503490e+00
1.783195753492741842e+00
5.903193785255383297e+00
5.693406049550355341e+00
4.283166270644330531e+00
2.488315642945754469e+00
3.962657229983870821e-01
-7.633942604821868372e-01
-8.041863202026089397e-01
-5.769162731888282103e-01
-3.671285374837998106e-01
-1.398584904700189702e-01
-1.048938678525141999e-01
-1.223761791612665295e-01
-1.165487420583490863e-01
-2.913718551458727157e-02
-1.748231130875238515e-02
-8.741155654376181472e-02
-1.748231130875238515e-02
5.827437102917443212e-03
-6.992924523500948508e-02
-3.496462261750471479e-02
5.244693392625709993e-02
5.827437102917498724e-03
-2.330974841166982836e-02
-9.906643074959670114e-02
-1.223761791612665850e-01
-6.992924523500948508e-02
-6.992924523500948508e-02
-2.272700470137807849e-01
-2.913718551458727712e-01
-2.097877357050284552e-01
-1.864779872933585714e-01
-3.321639148662950403e-01
-3.263364777633775971e-01
-3.263364777633775971e-01
-2.622346696312856107e-01
-2.564072325283680565e-01
-9.323899364667931344e-02
5.827437102917443212e-03
-5.827437102917443212e-03
0.000000000000000000e+00
0.000000000000000000e+00
0.000000000000000000e+00
4.661949682333965672e-02
4.661949682333964978e-02
2.913718551458728198e-02
-9.323899364667931344e-02
9.323899364667929957e-02
4.661949682333965672e-02
2.738895438371204416e-01
-5.827437102917457090e-02
-2.913718551458728545e-02
0.000000000000000000e+00
0.000000000000000000e+00
2.330974841166982836e-02
6.992924523500947120e-02
4.661949682333964284e-02
0.000000000000000000e+00
0.000000000000000000e+00
8.158411944084438538e-02
1.515133646758538566e-01
9.323899364667929957e-02
1.456859275729364134e-01
1.107213049554316847e-01
8.741155654376185635e-02
1.981328614991935688e-01
1.806505501904411837e-01
-5.827437102917457090e-03
0.000000000000000000e+00
9.906643074959677053e-02
1.282036162641840282e-01
0.000000000000000000e+00
-2.330974841166982836e-02
-5.827437102917457090e-03
0.000000000000000000e+00
-5.827437102917457090e-03
-1.748231130875237127e-02
0.000000000000000000e+00
0.000000000000000000e+00
-5.827437102917457090e-03
-1.165487420583491418e-02
-5.827437102917457090e-03
2.913718551458728545e-02
-2.330974841166982836e-02
-1.282036162641840560e-01
-6.410180813209202799e-02
-2.330974841166982836e-02
-1.165487420583491418e-02
5.827437102917457090e-03
5.244693392625711381e-02
1.748231130875237127e-02
0.000000000000000000e+00
-6.410180813209202799e-02
-2.330974841166982836e-02
1.748231130875237127e-02
6.410180813209202799e-02
8.158411944084438538e-02
5.244693392625711381e-02
-8.741155654376185635e-02
5.827437102917457090e-03
5.244693392625711381e-02
-5.827437102917457090e-03
0.000000000000000000e+00
-3.496462261750474254e-02
5.827437102917455702e-02
0.000000000000000000e+00
1.748231130875237127e-02
4.661949682333964284e-02
-1.165487420583491418e-02
1.165487420583491418e-02
8.741155654376185635e-02
4.661949682333964284e-02
5.827437102917455702e-02
1.223761791612665989e-01
-6.992924523500948508e-02
-2.913718551458728268e-01
-1.806505501904411559e-01
-9.323899364667931344e-02
-9.906643074959677053e-02
-1.165487420583491418e-01
-8.741155654376185635e-02
-1.748231130875237127e-02
0.000000000000000000e+00
0.000000000000000000e+00
5.827437102917457090e-03
0.000000000000000000e+00
-5.827437102917457090e-03
1.048938678525142276e-01
2.913718551458728545e-02
4.661949682333965672e-02
1.223761791612665989e-01
3.496462261750474254e-02
-1.806505501904411559e-01
-2.564072325283681120e-01
-1.404412341803107145e+00
-2.779687498091626630e+00
-1.864779872933586269e+00
5.069870279538187807e-01
5.588512181697841363e+00
5.804127354505786762e+00
4.399715012702680283e+00
2.721413127062452642e+00
2.855444180429553835e-01
-7.925314459967740532e-01
-1.089730738245564545e+00
-8.391509428201137100e-01
-6.060534587034154264e-01
-4.720224053363140104e-01
-3.671285374837998106e-01
-2.738895438371204416e-01
-2.855444180429553835e-01
-9.323899364667931344e-02
-1.456859275729364134e-01
-1.864779872933586269e-01
-2.097877357050284552e-01
-2.039602986021110120e-01
-1.864779872933586269e-01
-1.806505501904411559e-01
-1.864779872933586269e-01
-1.981328614991935133e-01
-2.330974841166982836e-01
-2.738895438371204416e-01
-2.797169809400379403e-01
-2.564072325283681120e-01
-2.855444180429553835e-01
-3.671285374837998106e-01
-4.487126569246441821e-01
-4.778498424392314536e-01
-4.603675311304791240e-01
-4.953321537479838388e-01
-5.128144650567362239e-01
-4.603675311304791240e-01
-4.370577827188092956e-01
-4.603675311304791240e-01
-4.545400940275616253e-01
-3.671285374837998106e-01
-2.505797954254506132e-01
-1.923054243962760701e-01
-6.992924523500948508e-02
4.079205972042219963e-02
1.456859275729364134e-01
1.573408017787712998e-01
1.806505501904411282e-01
1.748231130875236849e-01
2.330974841166982281e-01
2.389249212196157268e-01
2.797169809400378848e-01
2.330974841166982281e-01
1.806505501904411282e-01
2.039602986021109565e-01
1.806505501904411282e-01
1.748231130875236849e-01
1.456859275729364134e-01
1.981328614991935133e-01
2.272700470137807849e-01
1.456859275729364134e-01
2.039602986021109565e-01
1.456859275729364134e-01
2.214426099108633417e-01
2.389249212196157268e-01
2.680621067342029984e-01
3.030267293517077132e-01
2.738895438371204416e-01
2.680621067342029984e-01
2.971992922487902700e-01
2.447523583225331700e-01
2.097877357050284552e-01
2.097877357050284552e-01
1.864779872933586269e-01
2.097877357050284552e-01
1.573408017787712998e-01
1.340310533671014714e-01
8.741155654376185635e-02
1.340310533671014714e-01
2.330974841166981448e-02
4.661949682333964284e-02
1.864779872933586269e-01
2.214426099108633417e-01
6.410180813209202799e-02
1.748231130875237127e-02
8.741155654376185635e-02
3.496462261750472866e-02
5.244693392625711381e-02
-3.496462261750474254e-02
0.000000000000000000e+00
-2.330974841166982836e-02
-2.330974841166982836e-02
-5.827437102917457090e-03
0.000000000000000000e+00
3.496462261750472866e-02
2.913718551458728545e-02
-2.913718551458728545e-02
1.165487420583491418e-02
-1.748231130875237127e-02
-1.748231130875237127e-02
-1.748231130875237127e-02
2.913718551458728545e-02
-1.748231130875237127e-02
-1.748231130875237127e-02
1.748231130875237127e-02
5.827437102917457090e-03
0.000000000000000000e+00
-4.079205972042219963e-02
0.000000000000000000e+00
0.000000000000000000e+00
1.107213049554316708e-01
1.515133646758538843e-01
3.496462261750474254e-02
-2.330974841166982836e-02
1.165487420583491418e-02
0.000000000000000000e+00
-8.741155654376184247e-02
-9.323899364667931344e-02
-5.244693392625710687e-02
-4.661949682333964978e-02
4.079205972042219963e-02
4.079205972042219963e-02
3.496462261750474254e-02
0.000000000000000000e+00
-7.575668233792692829e-02
-7.575668233792694217e-02
-4.079205972042219963e-02
5.827437102917457090e-03
0.000000000000000000e+00
0.000000000000000000e+00
-1.806505501904411559e-01
-4.137480343071394673e-01
-1.328655659465180161e+00
-3.018612419311242689e+00
-2.942855736973315484e+00
2.272700470137808126e-01
5.093180027949856914e+00
6.072189461239990038e+00
4.230719336718073542e+00
2.010465800506522793e+00
-2.913718551458728545e-02
-8.799430025405359235e-01
-9.149076251580406938e-01
-6.177083329092504238e-01
-4.254029085129743537e-01
-2.971992922487903255e-01
-1.748231130875237127e-01
-1.631682388816887985e-01
-1.864779872933586269e-01
-1.573408017787713276e-01
-1.223761791612665850e-01
-1.165487420583491279e-01
-8.158411944084439926e-02
-6.410180813209202799e-02
-1.282036162641840560e-01
-1.282036162641840560e-01
-1.107213049554316708e-01
-9.323899364667929957e-02
-9.323899364667929957e-02
-1.689956759846062417e-01
-2.039602986021109843e-01
-2.039602986021109843e-01
-1.689956759846062417e-01
-2.738895438371204971e-01
-2.738895438371204971e-01
-2.389249212196157268e-01
-2.564072325283681120e-01
-3.088541664546252119e-01
-3.146816035575427106e-01
-3.205090406604601538e-01
-2.855444180429553835e-01
-1.748231130875237127e-01
-1.689956759846062417e-01
-1.107213049554316708e-01
-3.496462261750474254e-02
5.827437102917457090e-02
6.410180813209202799e-02
6.992924523500948508e-02
1.282036162641840282e-01
1.689956759846062417e-01
1.864779872933585991e-01
1.981328614991935133e-01
2.505797954254506688e-01
1.864779872933585991e-01
2.214426099108633417e-01
1.282036162641840282e-01
1.864779872933585991e-01
1.864779872933585991e-01
1.689956759846062417e-01
1.864779872933585991e-01
1.515133646758538566e-01
1.631682388816887708e-01
1.631682388816887708e-01
1.398584904700189424e-01
1.923054243962760701e-01
1.048938678525142276e-01
9.323899364667931344e-02
1.515133646758538566e-01
1.689956759846062417e-01
1.282036162641840282e-01
1.748231130875236849e-01
1.398584904700189424e-01
1.223761791612665989e-01
1.631682388816887708e-01
2.156151728079458985e-01
2.389249212196156991e-01
2.389249212196156991e-01
2.156151728079458985e-01
1.864779872933585991e-01
2.330974841166982559e-01
2.272700470137808126e-01
1.864779872933585991e-01
1.631682388816887708e-01
1.748231130875236849e-01
7.575668233792694217e-02
5.244693392625711381e-02
5.827437102917457090e-02
8.741155654376185635e-02
5.827437102917457090e-02
-2.330974841166982836e-02
2.330974841166982489e-02
-3.496462261750474254e-02
0.000000000000000000e+00
-1.165487420583491279e-01
-1.165487420583491245e-02
7.575668233792694217e-02
3.496462261750474254e-02
-4.661949682333964978e-02
-4.661949682333964978e-02
-8.158411944084439926e-02
-5.827437102917457090e-03
0.000000000000000000e+00
-5.827437102917457090e-03
5.244693392625711381e-02
2.330974841166982836e-02
2.330974841166982836e-02
-2.913718551458727851e-02
-1.748231130875236433e-02
-4.661949682333964978e-02
1.748231130875237127e-02
3.496462261750474254e-02
-8.741155654376184247e-02
-9.906643074959675666e-02
-2.447523583225331700e-01
1.748231130875236433e-02
-2.913718551458728545e-02
2.855444180429553835e-01
-4.661949682333965672e-02
-2.330974841166982836e-02
-1.748231130875237127e-02
-2.913718551458728545e-02
7.575668233792692829e-02
8.741155654376184247e-02
-4.079205972042219963e-02
-2.913718551458728823e-01
-5.710888360859107671e-01
-5.536065247771584374e-01
-4.603675311304791240e-01
-3.846108487925521402e-01
-2.622346696312855552e-01
-2.272700470137808404e-01
-1.456859275729364134e-01
-5.827437102917457090e-03
4.661949682333964978e-02
1.165487420583491279e-01
1.748231130875236849e-01
1.340310533671014992e-01
1.864779872933586269e-01
1.748231130875236849e-01
1.165487420583491279e-01
1.748231130875236849e-01
1.806505501904411559e-01
1.748231130875236849e-01
-1.107213049554316847e-01
-1.981328614991935688e-01
-1.672474448537310199e+00
-3.181780658192931099e+00
-2.622346696312855219e+00
7.284296378646820669e-01
5.955640719181640286e+00
5.833264540020373978e+00
3.974312104189705597e+00
2.022120674712357680e+00
-8.741155654376185635e-02
-6.934650152471774076e-01
-5.885711473946630967e-01
-3.263364777633775971e-01
-1.631682388816887985e-01
-7.575668233792694217e-02
-1.165487420583491418e-02
0.000000000000000000e+00
5.244693392625710687e-02
2.330974841166982836e-02
-5.827437102917457090e-03
2.330974841166982836e-02
0.000000000000000000e+00
7.575668233792692829e-02
5.827437102917457090e-03
0.000000000000000000e+00
2.330974841166982836e-02
5.827437102917456396e-02
-1.165487420583491418e-02
-7.575668233792694217e-02
-5.244693392625711381e-02
-1.748231130875237127e-02
-4.079205972042219963e-02
-1.573408017787713553e-01
-1.923054243962760701e-01
-2.156151728079458985e-01
-2.622346696312855552e-01
-2.505797954254506688e-01
-2.797169809400379403e-01
-2.447523583225331978e-01
-1.340310533671014992e-01
-1.573408017787713276e-01
-1.515133646758538566e-01
-5.827437102917456396e-02
0.000000000000000000e+00
1.165487420583491418e-02
7.575668233792694217e-02
6.992924523500948508e-02
1.165487420583491071e-02
0.000000000000000000e+00
6.992924523500948508e-02
5.244693392625711381e-02
6.410180813209202799e-02
8.158411944084439926e-02
2.330974841166982489e-02
4.079205972042219963e-02
5.827437102917457090e-02
5.827437102917457090e-02
-1.748231130875237127e-02
5.244693392625711381e-02
5.244693392625711381e-02
5.244693392625711381e-02
6.992924523500948508e-02
4.079205972042219963e-02
0.000000000000000000e+00
1.748231130875236780e-02
6.992924523500948508e-02
8.158411944084439926e-02
1.398584904700189424e-01
6.992924523500948508e-02
6.410180813209202799e-02
-1.165487420583491418e-02
1.340310533671014992e-01
9.323899364667931344e-02
8.741155654376185635e-02
8.158411944084439926e-02
6.992924523500948508e-02
5.244693392625711381e-02
6.992924523500948508e-02
4.661949682333965672e-02
5.827437102917457090e-02
8.158411944084439926e-02
5.244693392625711381e-02
1.165487420583491279e-01
8.158411944084439926e-02
8.158411944084439926e-02
3.496462261750474254e-02
4.079205972042219963e-02
4.079205972042219963e-02
1.165487420583491071e-02
0.000000000000000000e+00
0.000000000000000000e+00
-5.827437102917457090e-02
-1.165487420583491418e-02
-1.165487420583491418e-02
3.496462261750474254e-02
-4.079205972042219963e-02
-6.410180813209202799e-02
-4.661949682333965672e-02
-4.661949682333965672e-02
-3.496462261750474254e-02
5.827437102917457090e-03
2.330974841166982489e-02
1.748231130875237127e-02
-2.913718551458728198e-02
-3.496462261750474254e-02
5.244693392625710687e-02
4.079205972042219269e-02
1.748231130875237127e-02
2.330974841166982836e-02
5.244693392625710687e-02
1.165487420583491418e-02
-5.827437102917455355e-03
5.827437102917457090e-03
1.748231130875237127e-02
0.000000000000000000e+00
-1.748231130875237127e-02
1.165487420583491418e-02
0.000000000000000000e+00
-5.827437102917456396e-02
0.000000000000000000e+00
-1.165487420583491245e-02
-4.079205972042219963e-02
-5.827437102917455355e-03
1.748231130875237127e-02
-4.079205972042219963e-02
1.165487420583491418e-02
3.496462261750474254e-02
7.575668233792694217e-02
6.410180813209202799e-02
0.000000000000000000e+00
-2.913718551458728268e-01
-5.419516505713235510e-01
-5.011595908509013375e-01
-4.603675311304790685e-01
-4.370577827188092401e-01
-3.263364777633775971e-01
-2.505797954254506132e-01
-2.156151728079458985e-01
1.165487420583491418e-02
1.165487420583491418e-02
9.323899364667931344e-02
1.864779872933586269e-01
6.410180813209202799e-02
-1.748231130875237127e-02
8.158411944084439926e-02
3.904382858954696389e-01
1.107213049554316708e-01
1.107213049554316708e-01
1.165487420583491418e-01
-1.048938678525142276e-01
-3.554736632779648686e-01
-1.165487420583491529e+00
-2.966165485384985701e+00
-2.878753928841223608e+00
-1.107213049554316847e-01
4.801808172803983865e+00
6.142118706474999357e+00
4.213237025409321213e+00
2.424213834813662150e+00
4.312303456158917969e-01
-5.943985844975806510e-01
-6.992924523500948508e-01
-4.895047166450663401e-01
-2.680621067342030539e-01
-1.981328614991935688e-01
-1.398584904700189702e-01
-1.689956759846062417e-01
-1.048938678525142137e-01
-6.410180813209202799e-02
-9.323899364667929957e-02
-8.158411944084438538e-02
-1.456859275729364134e-01
-1.864779872933586269e-01
-1.398584904700189702e-01
-1.398584904700189702e-01
-1.689956759846062417e-01
-1.981328614991935688e-01
-1.573408017787713553e-01
-1.689956759846062417e-01
-2.097877357050284552e-01
-1.981328614991935688e-01
-3.030267293517077687e-01
-3.846108487925521402e-01
-4.020931601013045253e-01
-4.661949682333965672e-01
-4.661949682333965672e-01
-4.953321537479838388e-01
-4.778498424392313981e-01
-4.545400940275616253e-01
-3.729559745867171983e-01
-3.613011003808823118e-01
-2.971992922487903255e-01
-1.631682388816887708e-01
-9.906643074959675666e-02
-1.165487420583491418e-01
-4.661949682333962897e-02
3.496462261750475642e-02
5.827437102917457090e-02
6.992924523500948508e-02
1.223761791612665850e-01
1.107213049554316708e-01
1.515133646758538566e-01
1.631682388816887708e-01
1.223761791612665850e-01
8.158411944084438538e-02
7.575668233792692829e-02
1.107213049554316847e-01
1.398584904700189702e-01
1.223761791612665989e-01
1.631682388816887985e-01
1.456859275729364134e-01
1.223761791612665989e-01
1.340310533671015270e-01
1.806505501904411559e-01
1.981328614991935411e-01
2.156151728079458985e-01
2.447523583225331978e-01
2.272700470137808126e-01
3.088541664546252119e-01
3.088541664546252119e-01
2.971992922487902700e-01
2.855444180429553835e-01
2.272700470137808126e-01
1.864779872933586269e-01
2.156151728079458985e-01
2.214426099108633694e-01
1.864779872933586269e-01
1.748231130875237127e-01
1.748231130875237127e-01
1.340310533671015270e-01
1.107213049554316847e-01
1.340310533671015270e-01
1.631682388816887985e-01
1.282036162641840560e-01
8.741155654376184247e-02
1.223761791612665989e-01
9.323899364667931344e-02
8.158411944084439926e-02
8.741155654376184247e-02
5.827437102917457090e-02
5.244693392625712769e-02
2.913718551458729933e-02
0.000000000000000000e+00
-1.165487420583488642e-02
0.000000000000000000e+00
5.827437102917443212e-03
-1.165487420583494194e-02
-1.165487420583494194e-02
-2.913718551458732708e-02
-6.410180813209204187e-02
-4.079205972042221351e-02
0.000000000000000000e+00
0.000000000000000000e+00
1.165487420583494194e-02
5.827437102917498724e-03
-3.496462261750471479e-02
-3.496462261750471479e-02
-1.165487420583488642e-02
5.827437102917498724e-03
-1.748231130875232964e-02
4.661949682333968448e-02
5.244693392625712769e-02
-5.244693392625709993e-02
-4.079205972042215800e-02
-5.827437102917454315e-02
-4.661949682333965672e-02
0.000000000000000000e+00
3.496462261750477030e-02
5.827437102917443212e-03
-4.661949682333965672e-02
-2.330974841166982836e-02
0.000000000000000000e+00
5.827437102917443212e-03
5.244693392625712769e-02
2.913718551458727157e-02
5.827437102917443212e-03
1.165487420583488642e-02
-1.165487420583494194e-02
1.748231130875232964e-02
1.748231130875232964e-02
-6.410180813209204187e-02
-2.855444180429553835e-01
-5.302967763654885536e-01
-5.885711473946630967e-01
-5.302967763654885536e-01
-4.195754714100569105e-01
-2.913718551458728268e-01
-2.447523583225331700e-01
-1.689956759846062417e-01
-6.992924523500948508e-02
1.165487420583491418e-01
1.340310533671015270e-01
1.282036162641840560e-01
1.165487420583491418e-01
-1.748231130875238515e-02
1.573408017787713276e-01
-2.330974841166982836e-02
1.748231130875237127e-01
1.398584904700189702e-01
2.447523583225331700e-01
-2.913718551458727157e-02
-2.622346696312856107e-01
-1.410239778906024588e+00
-2.884581365944141051e+00
-2.430041271916579593e+00
1.357792844979767377e+00
5.681751175344520455e+00
5.885711473946630967e+00
4.382232701393927066e+00
2.406731523504909820e+00
3.904382858954695834e-01
-5.827437102917456535e-01
-7.692216975851042804e-01
-4.836772795421488969e-01
-2.913718551458728268e-01
-2.097877357050283997e-01
-8.158411944084437151e-02
-6.410180813209204187e-02
-1.165487420583494194e-02
5.244693392625709993e-02
9.906643074959675666e-02
7.575668233792692829e-02
5.827437102917443212e-03
5.827437102917443212e-03
2.913718551458727157e-02
-1.165487420583494194e-02
-5.827437102917443212e-03
1.748231130875238515e-02
0.000000000000000000e+00
-1.165487420583494194e-02
-1.748231130875238515e-02
-8.158411944084437151e-02
-6.410180813209204187e-02
-7.575668233792692829e-02
-1.048938678525141999e-01
-1.864779872933586269e-01
-2.272700470137808404e-01
-2.855444180429553835e-01
-2.913718551458728268e-01
-2.097877357050283997e-01
-1.631682388816887430e-01
-1.689956759846061862e-01
-1.806505501904411837e-01
-1.107213049554316431e-01
-5.827437102917443212e-03
0.000000000000000000e+00
2.330974841166984224e-02
-2.330974841166984224e-02
0.000000000000000000e+00
1.748231130875237127e-02
9.906643074959675666e-02
6.410180813209201411e-02
-1.165487420583491418e-02
1.748231130875236780e-02
4.079205972042219963e-02
3.496462261750474254e-02
1.165487420583491245e-02
1.165487420583491245e-02
2.330974841166982489e-02
4.661949682333965672e-02
6.992924523500948508e-02
1.748231130875236780e-02
1.748231130875236780e-02
4.661949682333965672e-02
4.661949682333965672e-02
1.748231130875236780e-02
9.323899364667931344e-02
1.573408017787713276e-01
1.048938678525142276e-01
1.398584904700189702e-01
1.282036162641840560e-01
2.039602986021109843e-01
8.158411944084439926e-02
9.323899364667931344e-02
9.906643074959675666e-02
6.410180813209201411e-02
5.827437102917456396e-02
