1840
1837
1845
1839
1840
1840
1840
1837
1831
1837
1837
1835
1837
1835
1833
1837
1839
1840
1837
1837
1833
1830
1830
1835
1830
1838
1846
1840
1844
1859
1855
1803
1767
1552
1328
1437
1966
2811
2829
2590
2291
1895
1727
1703
1739
1782
1813
1823
1817
1825
1821
1840
1847
1852
1840
1841
1854
1840
1842
1841
1838
1826
1825
1831
1829
1824
1808
1808
1802
1807
1813
1829
1839
1838
1853
1875
1883
1894
1904
1923
1930
1920
1914
1925
1923
1919
1917
1924
1916
1917
1927
1919
1914
1927
1929
1923
1940
1942
1947
1938
1939
1931
1936
1949
1949
1937
1932
1933
1936
1933
1936
1933
1941
1949
1929
1920
1921
1934
1936
1935
1927
1920
1929
1931
1924
1931
1937
1933
1924
1919
1920
1922
1933
1928
1930
1927
1927
1921
1918
1922
1936
1925
1929
1934
1932
1920
1914
1922
1939
1938
1922
1939
1935
1924
1938
1949
1938
1922
1884
1883
1891
1902
1904
1915
1923
1949
1952
1946
1947
1935
1946
1954
1950
1947
1956
1920
1887
1755
1488
1527
1901
2800
3007
2806
2513
2081
1856
1780
1802
1841
1873
1884
1897
1906
1909
1913
1920
1920
1916
1919
1917
1903
1907
1896
1901
1882
1884
1875
1863
1858
1856
1845
1853
1849
1840
1851
1866
1879
1865
1904
1930
1938
1949
1956
1965
1979
1986
1983
1961
1968
1974
1968
1974
1973
1966
1965
1970
1983
1970
1979
1981
1986
1970
1971
1979
1994
1986
1979
1974
1978
1974
1974
1971
1968
1965
1974
1968
1965
1962
1966
1957
1962
1968
1952
1946
1955
1955
1957
1951
1947
1956
1950
1954
1954
1955
1938
1942
1946
1949
1939
1953
1950
1949
1941
1946
1939
1942
1942
1940
1958
1951
1947
1954
1954
1953
1945
1914
1902
1904
1919
1915
1899
1914
1936
1942
1950
1958
1947
1946
1943
1939
1951
1963
1926
1872
1829
1521
1403
1692
2505
3043
2778
2457
2087
1838
1789
1813
1851
1889
1903
1905
1905
1913
1907
1914
1927
1921
1921
1919
1920
1918
1917
1917
1915
1907
1897
1891
1893
1893
1935
1873
1886
1893
1893
1902
1904
1907
1925
1945
1955
1969
1968
1957
1968
1975
1973
1974
1970
1965
1966
1965
1957
1966
1963
1958
1953
1963
1957
1957
1966
1966
2006
2009
1959
1979
1964
1968
1968
1961
1967
1965
1962
1961
1967
1966
1967
1958
1963
1965
1961
1954
1947
1949
1939
1941
1961
1953
1947
1949
1936
1941
1946
1947
1943
1936
1936
1934
1938
1940
1938
1936
1938
1925
1923
1924
1926
1927
1927
1933
1923
1921
1933
1922
1936
1942
1936
1920
1883
1872
1881
1878
1886
1882
1903
1905
1921
1921
1923
1909
1915
1916
1919
1913
1923
1910
1856
1826
1491
1329
1510
2226
2975
2810
2503
2163
1837
1769
1790
1817
1855
1870
1872
1871
1873
1887
1887
1888
1882
1876
1878
1885
1880
1891
1885
1872
1867
1865
1854
1858
1853
1839
1833
1838
1844
1861
1866
1875
1887
1902
1911
1920
1931
1922
1917
1917
1935
1924
1927
1926
1919
1911
1921
1919
1913
1917
1911
1913
1920
1923
1919
1916
1918
1920
1919
1923
1927
1923
1923
1921
1924
1927
1926
1925
1938
1935
1928
1925
1927
1925
1914
1918
1918
1914
1908
1903
1904
1904
1904
1910
1904
1904
1861
1898
1877
1902
1882
1953
1952
1899
1904
1883
1873
1911
1893
1899
1904
1897
1899
1899
1894
1891
1898
1905
1902
1903
1891
1898
1886
1888
1899
1905
1908
1914
1904
1893
1850
1854
1856
1861
1853
1858
1865
1905
1904
1906
1897
1895
1897
1904
1904
1905
1904
1872
1829
1735
1366
1351
1721
2614
2931
2663
2369
2000
1770
1751
1778
1828
1845
1858
1857
1867
1862
1870
1865
1870
1872
1881
1877
1873
1869
1863
1857
1854
1863
1867
1851
1839
1839
1835
1831
1833
1828
1840
1855
1863
1875
1888
1899
1901
1904
1913
1913
1917
1909
1910
1929
1921
1907
1907
1910
1906
1904
1904
1904
1904
1906
1906
1904
1914
1913
1911
1913
1919
1915
1919
1911
1911
1907
1907
1904
1905
1914
1907
1904
1904
1899
1887
1899
1893
1901
1904
1895
1889
1899
1893
1898
1900
1904
1898
1899
1906
1891
1897
1899
1895
1911
1893
1897
1892
1897
1875
1899
1886
1890
1891
1901
1895
1894
1884
1887
1887
1883
1887
1886
1883
1887
1885
1878
1898
1907
1911
1904
1899
1851
1839
1856
1867
1859
1855
1872
1893
1898
1898
1898
1885
1890
1890
1877
1891
1889
1861
1803
1771
1411
1328
1577
2368
2953
2726
2445
2099
1809
1744
1759
1803
1831
1839
1851
1859
1857
1861
1865
1857
1857
1855
1856
1864
1865
1867
1858
1853
1858
1855
1839
1840
1836
1830
1818
1815
1819
1841
1856
1868
1887
1887
1901
1906
1920
1927
1933
1944
1941
1935
1935
1935
1933
1936
1931
1925
1936
1937
1935
1938
1947
1949
1943
1951
1959
1966
1971
1962
1957
1965
1970
1965
1963
1963
1952
1954
1967
1968
1964
1965
1947
1947
1952
1968
1954
1955
1954
1965
1959
1951
1950
1949
1938
1957
1962
1971
1943
1938
1947
1957
1950
1949
1954
1957
1948
1932
1937
1951
1959
1939
1936
1949
1947
1935
1943
1956
1947
1945
1936
1936
1947
1958
1938
1938
1970
1962
1951
1936
1885
1877
1910
1922
1930
1919
1929
1939
1939
1959
1963
1951
1938
1949
1955
1952
1954
1929
1879
1814
1472
1473
1783
2569
3006
2791
2537
2192
1867
1772
1771
1813
1852
1860
1879
1886
1889
1893
1902
1889
1874
1893
1954
1877
1890
1843
1883
1911
1870
1846
1879
1876
1843
1837
1842
1844
1833
1840
1851
1869
1872
1893
1907
1920
1933
1936
1951
1968
1967
1955
1955
1961
1961
1954
1952
1946
1957
1959
1943
1958
1959
1959
1969
1969
1998
1970
1969
1966
1958
1969
1957
1959
1941
1937
1951
1955
1947
1949
1952
1951
1938
1936
1947
1947
1937
1939
1936
1936
1939
1941
1942
1951
1936
1937
1942
1943
1931
1942
1946
1945
1943
1941
1936
1942
1951
1943
1951
1955
1968
1965
1959
1963
1962
1964
1968
1980
1984
1979
1984
1989
1986
1952
1921
1924
1943
1962
1951
1958
1974
1989
1994
1985
1979
1991
2000
1998
2001
2002
1988
1939
1904
1634
1467
1616
2401
3082
2962
2672
2260
1958
1850
1853
1906
1938
1963
1963
1968
1975
1967
1969
1975
1983
1982
1978
1970
1970
1968
1975
1970
1963
1943
1945
1941
1933
1921
1927
1920
1919
1931
1922
1930
1949
1953
1959
1983
1995
2000
2005
2016
2023
2027
2025
2013
2015
2013
2020
2007
1997
2000
1997
1999
1997
2000
1994
2000
2000
2003
2015
2011
2000
2000
1995
1991
1988
1989
1982
1982
1972
1970
1975
1981
1968
1967
1968
1962
1951
1954
1949
1941
1947
1952
1938
1931
1942
1933
1926
1918
1920
1922
1932
1920
1919
1921
1910
1904
1909
1909
1904
1904
1906
1898
1895
1903
1888
1895
1899
1888
1887
1889
1890
1900
1904
1903
1899
1872
1840
1825
1833
1847
1840
1841
1862
1871
1879
1881
1879
1867
1872
1872
1872
1875
1874
1850
1795
1719
1392
1296
1556
2507
2958
2707
2390
1967
1757
1714
1741
1779
1796
1805
1816
1815
1823
1821
1829
1827
1813
1823
1814
1809
1813
1813
1811
1806
1819
1815
1803
1799
1789
1781
1786
1783
1787
1797
1809
1827
1830
1840
1849
1851
1863
1871
1873
1863
1863
1870
1858
1861
1855
1865
1866
1858
1856
1858
1868
1863
1857
1860
1857
1872
1872
1872
1879
1888
1878
1887
1883
1878
1877
1879
1875
1883
1887
1878
1875
1879
1875
1878
1887
1890
1884
1886
1887
1887
1891
1882
1873
1869
1876
1886
1883
1878
1883
1887
1893
1890
1885
1883
1887
1891
1872
1877
1879
1872
1883
1896
1887
1893
1886
1885
1883
1892
1878
1883
1890
1883
1878
1903
1904
1909
1897
1872
1826
1842
1847
1862
1851
1868
1885
1887
1902
1903
1889
1891
1897
1889
1902
1903
1899
1845
1823
1657
1353
1395
1893
2735
2935
2598
2282
1931
1760
1744
1788
1821
1833
1844
1851
1850
1845
1843
1857
1861
1872
1856
1855
1857
1860
1854
1846
1854
1847
1843
1840
1831
1825
1811
1815
1814
1822
1838
1840
1856
1867
1871
1888
1897
1906
1898
1903
1914
1909
1907
1904
1903
1907
1895
1892
1902
1906
1901
1904
1901
1904
1906
1913
1904
1899
1906
1909
1894
1906
1911
1911
1919
1910
1907
1911
1918
1905
1902
1902
1903
1904
1907
1911
1907
1901
1897
1898
1904
1904
1904
1904
1891
1894
1896
1904
1889
1890
1889
1887
1882
1887
1881
1871
1881
1872
1878
1888
1883
1884
1883
1885
1879
1876
1884
1878
1871
1878
1878
1878
1872
1874
1882
1891
1889
1902
1873
1837
1827
1825
1851
1846
1842
1854
1873
1885
1886
1876
1879
1879
1885
1890
1881
1884
1870
1798
1758
1466
1313
1501
2377
2954
2775
2484
2087
1815
1734
1746
1795
1819
1842
1842
1846
1849
1853
1869
1859
1851
1868
1862
1858
1857
1859
1846
1840
1847
1840
1813
1823
1808
1799
1808
1808
1805
1808
1820
1830
1840
1861
1872
1872
1886
1901
1901
1904
1897
1901
1905
1900
1895
1903
1894
1895
1899
1899
1930
1906
1899
1908
1872
1919
1909
1908
1906
1911
1911
1900
1904
1904
1903
1910
1920
1902
1895
1904
1901
1903
1898
1893
1898
1895
1894
1897
1897
1899
1900
1901
1904
1878
1883
1895
1893
1891
1890
1882
1892
1888
1879
1873
1889
1873
1885
1879
1889
1886
1885
1882
1871
1885
1894
1882
1872
1873
1874
1873
1876
1891
1882
1881
1872
1872
1876
1889
1901
1893
1894
1863
1823
1827
1842
1842
1836
1845
1858
1872
1872
1871
1871
1883
1886
1872
1879
1874
1883
1841
1802
1707
1408
1414
1833
2653
2954
2676
2383
2011
1779
1710
1738
1778
1808
1825
1825
1846
1847
1855
1855
1863
1851
1846
1854
1856
1843
1850
1844
1840
1839
1835
1815
1815
1808
1792
1792
1797
1802
1808
1808
1823
1835
1847
1872
1877
1883
1891
1898
1904
1904
1916
1918
1913
1920
1906
1909
1913
1907
1906
1921
1920
1921
1927
1925
1934
1937
1929
1930
1929
1923
1929
1936
1914
1904
1915
1925
1934
1909
1903
1915
1917
1978
1853
1913
1914
1906
1897
1903
1905
1915
1913
1910
1907
1911
1919
1915
1909
1918
1901
1907
1905
1899
1900
1904
1914
1904
1910
1904
1907
1921
1920
1917
1905
1907
1909
1906
1911
1919
1926
1921
1920
1898
1859
1870
1886
1901
1894
1896
1917
1924
1927
1922
1911
1930
1927
1923
1929
1927
1935
1913
1860
1795
1472
1487
1792
2579
3013
2816
2544
2171
1840
1762
1776
1810
1840
1856
1861
1862
1872
1872
1876
1879
1891
1883
1883
1873
1875
1869
1875
1879
1863
1856
1853
1850
1837
1839
1824
1814
1834
1834
1837
1847
1855
1859
1886
1904
1920
1945
1953
1951
1965
1959
1968
1978
1984
1971
1954
1958
1964
1971
1968
1968
1957
1968
1986
1979
1968
1982
1982
1974
1972
1974
1958
1966
1963
1957
1955
1953
1943
1954
1967
1959
1956
1953
1946
1936
1932
1936
1936
1938
1935
1930
1937
1941
1936
1933
1931
1975
1938
1936
1985
1872
1929
1921
1919
1920
1922
1930
1936
1941
1931
1949
1930
1905
1905
1906
1904
1894
1909
1919
1923
1926
1919
1899
1917
1931
1913
1919
1921
1905
1846
1794
1485
1386
1712
2529
3077
2858
2457
2074
1808
1745
1785
1835
1854
1867
1872
1875
1878
1879
1897
1898
1897
1894
1891
1902
1892
1899
1900
1891
1885
1879
1871
1861
1859
1853
1854
1856
1851
1858
1872
1879
1885
1904
1918
1927
1943
1958
1974
1983
1977
1977
1984
1986
1982
1975
1984
1986
1986
1986
1984
1986
1999
1994
2002
2014
2014
2005
2023
2025
2016
2025
2032
2032
2034
2032
2038
2032
2032
2026
2026
2035
2032
2032
2032
2042
2047
2032
2031
2027
2036
2046
2043
2032
2039
2034
2037
2032
2032
2039
2046
2045
2032
2036
2045
2056
2042
2053
2059
2062
2062
2055
2063
2060
2065
2068
2081
2091
2068
2035
2058
2055
2039
2033
2038
2063
2069
2064
2062
2068
2065
2066
2073
2082
2071
2061
1988
1954
1679
1490
1699
2444
3166
3041
2633
2270
1984
1902
1913
1962
1991
2008
2026
2020
2019
2029
2023
2018
2019
2032
2018
2004
2013
2013
2001
2018
1991
1990
1978
1968
1967
1947
1936
1938
1939
1946
1947
1952
1956
1967
1968
1983
1993
1998
1997
2000
1999
1985
1986
1985
1984
1970
1958
1953
1963
1949
1941
1939
1944
1933
1930
1932
1925
1934
1927
1930
1921
1914
1910
1894
1902
1899
1895
1891
1884
1879
1881
1870
1872
1863
1856
1840
1843
1845
1831
1827
1830
1807
1819
1827
1812
1803
1738
1807
1793
1797
1795
1792
1786
1782
1782
1773
1781
1782
1756
1774
1771
1767
1764
1763
1756
1763
1762
1757
1744
1750
1753
1755
1749
1744
1755
1744
1741
1737
1751
1748
1758
1766
1780
1767
1733
1732
1742
1727
1729
1738
1749
1753
1744
1747
1743
1746
1747
1748
1731
1739
1727
1691
1639
1472
1193
1216
1771
2591
2766
2474
2123
1791
1618
1600
1653
1691
1702
1718
1708
1717
1735
1735
1738
1745
1738
1735
1739
1744
1745
1747
1741
1744
1732
1731
1730
1725
1721
1718
1712
1725
1718
1716
1740
1746
1765
1744
1793
1797
1801
1813
1815
1771
1819
1821
1825
1829
1821
1821
1814
1828
1816
1835
1835
1830
1837
1840
1851
1849
1841
1844
1856
1855
1863
1856
1853
1850
1850
1849
1856
1861
1846
1845
1843
1842
1851
1847
1840
1845
1840
1842
1853
1845
1837
1827
1840
1814
1843
1840
1850
1839
1852
1858
1851
1850
1856
1851
1843
1846
1845
1853
1834
1841
1838
1845
1847
1841
1851
1857
1857
1859
1867
1851
1850
1849
1840
1845
1847
1842
1834
1843
1841
1840
1843
1856
1846
1856
1846
1811
1818
1830
1834
1824
1844
1855
1857
1866
1872
1874
1872
1865
1862
1874
1882
1887
1830
1814
1651
1360
1424
1951
2752
2928
2630
2315
1973
1781
1727
1762
1808
1823
1843
1865
1871
1861
1854
1859
1850
1865
1863
1866
1857
1863
1861
1865
1857
1847
1846
1841
1839
1833
1827
1808
1810
1845
1850
1851
1857
1872
1887
1897
1903
1905
1937
1950
1949
1942
1938
1941
1949
1954
1951
1959
1943
1935
1953
1953
1943
1948
1942
1959
1975
1965
1951
1957
1968
1968
1957
1961
1957
1941
1939
1946
1943
1939
1952
1957
1957
1945
1954
1951
1937
1936
1943
1941
1936
1945
1935
1936
1950
1942
1934
1939
1950
1949
1939
1921
1943
1936
1919
1920
1927
1934
1920
1925
1929
1919
1920
1920
1934
1918
1907
1917
1926
1921
1952
1918
1905
1930
1933
1931
1926
1959
1920
1888
1893
1920
1917
1904
1904
1904
1918
1934
1925
1922
1920
1905
1920
1914
1909
1909
1906
1862
1772
1488
1485
1798
2669
2991
2836
2577
2130
1848
1744
1753
1802
1829
1840
1851
1872
1883
1882
1872
1893
1888
1885
1889
1874
1878
1879
1878
1877
1869
1859
1859
1869
1864
1829
1829
1832
1829
1837
1841
1853
1866
1895
1904
1917
1936
1937
1946
1975
1995
1986
1985
2000
1995
1989
1984
1974
1968
1977
1990
1984
1988
1997
1995
1997
1990
1990
2003
1996
1978
1972
1983
1984
1980
1970
1970
1963
1968
1968
1962
1963
1973
1966
1957
1966
1965
1963
1962
1954
1967
1965
1957
1965
1962
1968
1958
1941
1955
1961
1961
1954
1951
1945
1943
1947
1948
1946
1941
1936
1945
1951
1949
1968
1961
1922
1936
1933
1918
1906
1922
1947
1942
1947
1936
1936
1939
1946
1936
1920
1937
1920
1871
1826
1552
1431
1618
2480
3071
2893
2576
2134
1847
1768
1777
1835
1851
1875
1883
1882
1891
1895
1899
1899
1901
1902
1905
1910
1906
1903
1904
1897
1890
1879
1879
1872
1873
1856
1850
1851
1851
1858
1864
1872
1878
1897
1906
1920
1934
1949
1952
1967
1975
1966
1968
1971
1969
1969
1972
1971
1965
1954
1950
1955
1959
1954
1957
1968
1961
1951
1961
1971
1971
1970
1975
1971
1963
1967
1967
1962
1954
1958
1953
1951
1955
1936
1936
1944
1946
1943
1952
1939
1940
1933
1936
1932
1939
1936
1934
1920
1926
1930
1934
1931
1923
1928
1925
1935
1927
1920
1922
1922
1923
1917
1930
1937
1923
1898
1904
1902
1890
1889
1900
1905
1904
1911
1905
1910
1905
1901
1909
1902
1909
1907
1859
1829
1607
1328
1399
2083
2883
2941
2614
2193
1863
1737
1751
1808
1838
1853
1858
1868
1875
1872
1869
1880
1879
1890
1892
1879
1883
1885
1875
1872
1872
1872
1870
1861
1863
1845
1851
1853
1853
1855
1834
1865
1872
1891
1902
1907
1921
1929
1970
2000
1940
1931
1937
1937
1937
1933
1930
1923
1929
1929
1927
1933
1920
1920
1936
1921
1931
1934
1929
1934
1926
1923
1941
1933
1926
1920
1936
1936
1929
1920
1927
1930
1930
1922
1919
1926
1914
1918
1925
1914
1907
1902
1907
1904
1910
1907
1903
1901
1904
1899
1901
1915
1911
1904
1901
1906
1904
1906
1910
1904
1904
1910
1907
1903
1905
1905
1914
1909
1905
1902
1906
1914
1905
1911
1910
1915
1915
1914
1915
1926
1935
1917
1894
1914
1904
1898
1895
1904
1913
1918
1907
1904
1990
1915
1907
1929
1915
1925
1943
1871
1841
1648
1360
1455
2042
2853
2915
2574
2254
1936
1799
1792
1844
1866
1881
1903
1904
1893
1902
1913
1909
1904
1907
1913
1919
1915
1919
1908
1911
1904
1904
1903
1895
1888
1890
1888
1875
1877
1888
1903
1901
1923
1934
1949
1985
1966
1973
1985
1981
1983
1983
1982
1984
1982
1986
1975
1984
1978
1974
1978
1986
1984
1980
1978
1973
1979
1985
1995
1988
1986
1991
1989
1998
1993
1983
1989
1994
1991
1984
1994
1986
1985
1996
1988
1980
1967
1982
1977
1975
1978
1975
1968
1973
1968
1972
1969
1968
1968
1969
1968
1967
1971
1968
1966
1968
1958
1966
1967
1979
1970
1965
1966
1967
1962
1965
1975
1968
1968
1971
1973
1968
1971
1969
1970
1967
1966
1968
1975
1979
1968
1982
1981
1966
1937
1909
1907
1923
1933
1933
1931
1947
1955
1955
1951
1955
1944
1951
1955
1960
1942
1952
1901
1867
1695
1399
1456
1978
2796
2949
2619
2318
1970
1799
1779
1823
1841
1862
1878
1878
1873
1876
1872
1873
1885
1887
1871
1866
1867
1856
1847
1856
1849
1840
1840
1822
1830
1818
1806
1795
1799
1808
1813
1823
1827
1840
1846
1851
1855
1872
1881
1881
1878
1887
1887
1890
1887
1869
1875
1886
1873
1872
1873
1872
1867
1872
1872
1865
1871
1883
1877
1878
1878
1871
1859
1867
1869
1860
1847
1856
1862
1872
1855
1843
1847
1856
1857
1854
1840
1835
1833
1846
1839
1826
1844
1843
1847
1841
1839
1818
1827
1835
1830
1824
1818
1902
1838
1823
1826
1903
1819
1821
1815
1825
1827
1840
1829
1840
1823
1823
1834
1828
1847
1839
1821
1825
1838
1847
1840
1826
1827
1827
1846
1847
1834
1798
1763
1777
1804
1812
1791
1808
1831
1836
1820
1827
1830
1828
1840
1835
1835
1840
1834
1790
1757
1590
1345
1429
2011
2741
2839
2635
2291
1925
1709
1657
1680
1713
1751
1770
1773
1786
1803
1802
1790
1783
1781
1802
1794
1861
1755
1795
1791
1761
1767
1776
1777
1765
1758
1737
1726
1738
1757
1776
1758
1766
1799
1814
1810
1819
1847
1875
1878
1881
1905
1911
1901
1908
1904
1891
1885
1904
1907
1911
1905
1897
1902
1908
1915
1921
1927
1917
1920
1934
1935
1919
1925
1917
1914
1918
1915
1911
1920
1922
1916
1913
1906
1904
1907
1917
1919
1917
1915
1907
1923
1925
1907
1910
1937
1934
1904
1906
1929
1927
1909
1904
1911
1910
1922
1919
1921
1931
1920
1921
1915
1913
1927
1924
1931
1934
1936
1923
1902
1909
1915
1908
1910
1917
1911
1915
1925
1937
1931
1929
1984
1934
1927
1935
1915
1871
1847
1602
1415
1564
2291
2966
2909
2652
2259
1921
1786
1771
1814
1854
1872
1874
1875
1879
1883
1891
1882
1889
1895
1885
1893
1895
1903
1890
1887
1883
1872
1874
1871
1866
1863
1856
1840
1841
1841
1839
1847
1867
1883
1893
1905
1925
1931
1945
1947
1979
1978
1983
2018
1967
1966
1975
1973
1966
1959
1967
1968
1975
1980
1958
1970
1970
1974
1975
1965
1968
1975
1984
1975
1974
1968
1969
1973
1967
1952
1953
1957
1968
1968
1961
1964
1958
1955
1954
1946
1946
1951
1940
1949
1952
1950
1939
1946
1948
1947
1943
1943
1936
1941
1936
1936
1939
1939
1934
1931
1938
1936
1942
1922
1936
1941
1946
1947
1936
1914
1923
1921
1904
1909
1910
1919
1930
1920
1931
1932
1932
1930
1936
1936
1934
1935
1909
1869
1721
1413
1418
1920
2727
3023
2711
2329
1968
1792
1790
1851
1845
1904
1877
1914
1904
1933
1936
1935
1941
1938
1934
1942
1950
1950
1937
1933
1937
1942
1947
1943
1934
1934
1929
1919
1922
1923
1926
1940
1956
1967
1981
1989
2000
2000
2005
2027
2028
2032
2025
2023
2020
2026
2027
2022
2014
2019
2022
2029
2022
2032
2029
2022
2018
2017
2037
2033
2032
2043
2038
2043
2059
2055
2046
2045
2045
2087
2047
2046
2041
2047
2039
2021
2038
2042
2033
2032
2033
2032
2032
2030
2032
2030
2073
2039
2031
2030
2026
2014
2021
2023
2005
2015
2031
2025
2019
2025
2017
2010
2007
2011
2021
2016
2018
2022
2017
2013
2018
2018
2026
2016
2015
2013
2011
2010
2018
2015
2010
2015
2019
2013
1984
1979
1987
1969
1962
1959
1969
1979
1984
1984
1981
1981
1978
1971
1977
1971
1968
1957
1904
1872
1577
1412
1562
2387
3023
2863
2551
2160
1885
1802
1821
1866
1893
1909
1907
1904
1910
1920
1918
1919
1927
1918
1913
1909
1909
1904
1904
1899
1882
1882
1877
1877
1873
1872
1857
1865
1862
1870
1874
1891
1885
1901
1910
1918
1919
1920
1930
1927
1933
1925
1926
1920
1918
1921
1919
1917
1910
1915
1914
1903
1915
1914
1918
1905
1904
1911
1908
1909
1909
1891
1905
1904
1901
1889
1886
1893
1889
1889
1886
1883
1891
1883
1872
1871
1913
1858
1853
1856
1856
1851
1856
1841
1851
1856
1849
1841
1841
1845
1835
1835
1836
1831
1834
1821
1818
1823
1832
1824
1807
1811
1818
1818
1809
1808
1811
1824
1821
1809
1811
1813
1815
1809
1815
1808
1814
1831
1825
1824
1813
1792
1763
1776
1773
1776
1767
1776
1805
1810
1817
1817
1807
1803
1794
1806
1808
1808
1803
1750
1728
1550
1251
1327
1890
2693
2800
2466
2160
1827
1669
1654
1697
1734
1743
1756
1766
1748
1758
1761
1767
1762
1776
1773
1773
1778
1767
1766
1747
1751
1745
1733
1737
1728
1725
1709
1723
1719
1727
1737
1734
1726
1744
1759
1782
1792
1811
1811
1819
1811
1819
1829
1827
1830
1839
1811
1817
1824
1822
1814
1813
1805
1806
1808
1819
1823
1822
1825
1840
1838
1839
1830
1826
1828
1824
1822
1823
1830
1818
1827
1827
1827
1821
1815
1812
1815
1813
1818
1813
1809
1826
1807
1803
1815
1813
1803
1813
1810
1817
1831
1831
1829
1825
1809
1827
1834
1843
1840
1840
1809
1841
1834
1847
1849
1846
1840
1841
1840
1853
1845
1837
1853
1856
1847
1843
1853
1867
1856
1855
1849
1824
1805
1821
1824
1827
1822
1825
1851
1859
1862
1867
1855
1840
1843
1863
1847
1862
1857
1807
1783
1562
1355
1520
2147
2854
2818
2576
2269
1911
1712
1705
1744
1780
1819
1825
1822
1823
1838
1842
1831
1843
1847
1835
1841
1856
1848
1843
1830
1826
1835
1835
1808
1797
1811
1815
1791
1792
1793
1804
1805
1833
1854
1853
1855
1861
1899
1922
1930
1931
1914
1947
1939
1983
1926
1931
1937
1937
1941
1949
1945
1937
1937
1951
1963
1953
1962
1956
1952
1971
1968
1936
1937
1954
1959
1937
1933
1936
1937
1936
1934
1937
1937
1936
1935
1936
1942
1933
1915
1926
1933
1935
1938
1946
1940
1937
1926
1933
1940
1948
1951
1946
1922
1938
1946
1936
1937
1931
1947
1937
1940
1945
1935
1939
1952
1945
1947
1958
1925
1887
1906
1921
1920
1917
1922
1934
1937
1937
1938
1937
1935
1954
1941
1943
1956
1941
1904
1891
1694
1458
1615
2022
2894
2931
2690
2402
1984
1799
1748
1791
1831
1854
1872
1888
1886
1919
1910
1903
1899
1900
1903
1904
1903
1901
1895
1888
1887
1891
1886
1872
1858
1853
1856
1850
1847
1856
1860
1856
1857
1872
1892
1902
1923
1950
1968
1970
1974
1973
1983
1984
1991
1983
1974
1978
1974
1973
1968
1977
1982
1968
1978
1968
1981
1984
1989
1995
1990
1989
1994
1985
1979
1979
1975
1979
1970
1966
1958
1966
1947
1951
1975
1981
1954
1946
1958
1949
1952
1937
1943
1939
1939
1941
1941
1947
1946
1936
1943
1936
1936
1936
1942
1934
1933
1939
1937
1936
1929
1936
1936
1955
1962
1942
1931
1936
1933
1918
1915
1920
1921
1936
1936
1935
1929
1916
1914
1919
1927
1926
1926
1895
1855
1698
1408
1421
1965
2800
2968
2652
2271
1921
1775
1769
1820
1853
1875
1896
1898
1894
1899
1905
1906
1912
1915
1904
1904
1907
1910
1910
1897
1891
1891
1897
1879
1879
1885
1882
1873
1872
1871
1877
1896
1897
1907
1920
1935
1936
1937
1947
1954
1957
1959
1968
1957
1963
1947
1957
1957
1954
1957
1951
1953
1953
1949
1958
1943
1941
1951
1954
1947
1955
1949
1946
1953
1962
1966
1966
1962
1957
1965
1964
1957
1953
1955
1938
1934
1935
1940
1935
1921
1929
1919
1925
1905
1919
1933
1926
1911
1911
1904
1916
1917
1916
1925
1920
1918
1909
1911
1906
1917
1920
1899
1897
1869
1914
1906
1960
1902
1906
1907
1904
1920
1922
1899
1856
1808
1811
1827
1840
1861
1867
1881
1905
1914
1926
1936
1929
1938
1936
1926
1936
1937
1936
1887
1872
1619
1360
1456
2031
2928
2907
2588
2253
1891
1787
1805
1850
1878
1893
1904
1906
1915
1910
1905
1910
1906
1919
1907
1906
1910
1916
1904
1893
1897
1903
1899
1879
1873
1870
1865
1867
1862
1872
1891
1887
1888
1904
1915
1926
1939
1939
1929
1927
1939
1936
1938
1941
1931
1934
1937
1937
1924
1936
1936
1936
1939
1934
1927
1930
1939
1941
1951
1939
1938
1925
1950
1943
1942
1941
1939
1936
1939
1935
1937
1941
1936
1947
1941
1941
1933
1934
1934
1929
1927
1927
1917
1925
1925
1933
1920
1915
1918
1917
1919
1926
1929
1926
1918
1916
1931
1929
1925
1925
1930
1923
1919
1921
1923
1920
1917
1922
1920
1910
1920
1918
1913
1919
1923
1913
1922
1926
1933
1931
1920
1870
1827
1834
1841
1845
1864
1877
1883
1922
1922
1936
1952
1931
1917
1931
1984
1936
1936
1937
1899
1856
1717
1408
1423
1887
2730
2960
2629
2322
1980
1804
1786
1822
1860
1872
1882
1877
1888
1895
1890
1892
1881
1874
1882
1882
1877
1872
1879
1877
1870
1872
1854
1840
1837
1826
1825
1819
1822
1826
1840
1840
1851
1873
1882
1879
1890
1904
1907
1907
1914
1911
1918
1918
1911
1902
1901
1906
1907
1904
1911
1908
1904
1906
1914
1917
1920
1925
1922
1936
1936
1934
1932
1922
1915
1920
1921
1915
1913
1913
1906
1902
1906
1911
1905
1898
1904
1899
1897
1898
1893
1892
1888
1883
1873
1874
1875
1872
1872
1868
1862
1866
1872
1872
1874
1873
1866
1866
1870
1873
1869
1880
1881
1863
1865
1862
1863
1871
1877
1872
1863
1867
1871
1872
1880
1876
1872
1872
1867
1872
1872
1856
1818
1776
1766
1776
1795
1817
1825
1838
1855
1879
1882
1881
1879
1856
1885
1854
1888
1882
1900
1853
1813
1616
1363
1441
2091
2833
2868
2610
2271
1925
1758
1726
1775
1808
1822
1844
1847
1856
1867
1875
1871
1859
1859
1863
1856
1857
1861
1858
1856
1855
1844
1847
1845
1840
1826
1819
1810
1809
1823
1831
1830
1835
1848
1866
1881
1904
1900
1904
1920
1936
1930
1917
1922
1926
1925
1921
1921
1923
1927
1931
1922
1922
1927
1927
1922
1935
1946
1937
1943
1941
1954
1933
1935
1936
1930
1929
1936
1929
1919
1920
1925
1929
1931
1920
1930
1929
1923
1921
1912
1909
1918
1908
1921
1919
1919
1919
1920
1908
1905
1904
1905
1919
1918
1923
1911
1909
1921
1905
1915
1925
1915
1917
1920
1911
1919
1925
1915
1910
1933
1948
1930
1896
1856
1826
1840
1846
1863
1877
1875
1898
1933
1943
1945
1955
1935
1936
1955
1957
1954
1949
1915
1879
1798
1531
1526
1878
2665
2993
2765
2512
2147
1872
1776
1786
1823
1865
1879
1890
1899
1904
1904
1909
1907
1904
1906
1906
1904
1895
1898
1893
1886
1885
1873
1872
1856
1852
1850
1851
1851
1843
1858
1872
1876
1874
1882
1902
1913
1936
1963
1966
1977
1979
1978
1985
1995
1997
1984
1985
1984
1987
1994
1995
1991
1997
2003
2005
2014
2014
2016
2018
2017
2018
2023
2022
2021
2011
2011
2023
2015
2013
2014
2014
2022
2026
2017
2011
2013
2017
2021
2032
2019
2017
2032
2033
2055
2043
2035
2030
2032
2033
2032
2038
2034
2041
2031
2034
2032
2065
2032
2045
2057
2043
2060
2058
2065
2071
2086
2032
1989
1965
1977
2000
2015
1994
2087
2063
2066
2081
2094
2096
2096
2096
2102
2110
2116
2115
2069
2041
1891
1600
1648
2142
2998
3227
2851
2498
2137
1974
1967
2010
2045
2064
2078
2090
2085
2087
2096
2090
2095
2096
2096
2091
2087
2091
2085
2081
2085
2087
2074
2065
2047
2039
2034
2037
2032
2029
2033
2032
2042
2055
2064
2066
2080
2096
2096
2110
2111
2110
2096
2112
2101
2092
2096
2093
2085
2078
2080
2071
2075
2071
2058
2057
2063
2063
2055
2062
2045
2053
2055
2046
2045
2042
2032
2032
2030
1974
2014
2011
2017
2014
2011
1989
1999
1991
1979
1981
1982
1936
2017
1975
1968
1962
1943
1950
1939
1937
1943
1936
1934
1932
1934
1923
1922
1917
1921
1916
1914
1909
1890
1904
1819
1897
1890
1892
1889
1893
1908
1881
1823
1777
1782
1781
1801
1828
1833
1839
1857
1871
1888
1889
1887
1876
1875
1872
1874
1885
1860
1799
1774
1503
1282
1465
2202
2896
2743
2442
2064
1790
1698
1716
1759
1793
1807
1814
1812
1823
1809
1808
1813
1808
1808
1814
1809
1800
1797
1797
1786
1787
1786
1776
1763
1763
1750
1743
1729
1742
1745
1759
1764
1765
1776
1796
1799
1805
1831
1825
1828
1827
1817
1819
1826
1823
1825
1820
1819
1814
1826
1830
1826
1824
1823
1823
1820
1835
1829
1838
1839
1840
1839
1843
1843
1835
1839
1846
1840
1835
1840
1840
1815
1834
1829
1815
1831
1829
1827
1827
1831
1823
1822
1818
1824
1823
1817
1804
1793
1791
1795
1792
1798
1792
1793
1797
1792
1785
1786
1777
1785
1781
1783
1793
1795
1795
1793
1798
1813
1799
1792
1795
1790
1789
1803
1813
1818
1813
1797
1767
1726
1709
1715
1727
1757
1761
1766
1856
1809
1823
1813
1824
1825
1823
1822
1822
1825
1825
1765
1734
1535
1264
1352
1943
2752
2830
2475
2159
1830
1687
1675
1726
1755
1765
1786
1791
1784
1792
1790
1791
1790
1796
1799
1790
1792
1782
1790
1783
1777
1776
1695
1755
1757
1745
1744
1754
1761
1754
1760
1771
1776
1777
1805
1814
1866
1809
1839
1835
1840
1846
1845
1851
1854
1845
1844
1843
1838
1840
1850
1846
1854
1855
1853
1856
1859
1859
1863
1865
1870
1870
1867
1874
1875
1870
1871
1871
1863
1866
1862
1859
1871
1862
1856
1863
1871
1866
1871
1866
1859
1859
1861
1860
1862
1866
1854
1856
1872
1869
1866
1857
1866
1867
1872
1872
1869
1861
1859
1860
1858
1867
1872
1869
1873
1872
1873
1872
1873
1876
1878
1871
1871
1856
1881
1875
1883
1887
1884
1847
1805
1779
1787
1827
1808
1823
1840
1861
1797
1875
1893
1894
1895
1904
1899
1902
1895
1891
1853
1801
1665
1365
1421
1889
2717
2934
2626
2323
1977
1787
1749
1785
1814
1837
1847
1858
1864
1854
1851
1847
1851
1847
1849
1869
1861
1850
1858
1851
1840
1849
1839
1832
1820
1812
1803
1799
1801
1808
1815
1817
1819
1834
1854
1855
1837
1881
1904
1902
1899
1899
1915
1902
1904
1907
1911
1910
1897
1903
1906
1920
1907
1908
1914
1909
1913
1927
1920
1920
1930
1921
1916
1911
1915
1917
1904
1913
1906
1906
1911
1904
1899
1891
1904
1902
1904
1903
1895
1894
1906
1904
1913
1918
1907
1899
1893
1900
1906
1906
1904
1895
1904
1894
1899
1900
1896
1920
1898
1879
1891
1904
1893
1896
1903
1915
1901
1897
1895
1898
1905
1904
1904
1888
1826
1780
1783
1795
1822
1846
1856
1876
1904
1911
1919
1925
1915
1933
1935
1929
1933
1930
1901
1854
1724
1465
1525
1896
2785
2990
2799
2528
2087
1829
1744
1759
1805
1827
1856
1872
1882
1883
1894
1894
1877
1873
1872
1878
1877
1875
1861
1865
1875
1870
1853
1840
1835
1840
1829
1814
1805
1804
1807
1813
1830
1838
1856
1872
1879
1897
1905
1926
1953
1952
1962
1958
1961
1968
1959
1962
1961
1964
1967
1966
1979
1961
1972
1969
1979
1984
1966
1975
1970
1953
1959
1949
1956
1966
1967
1959
1945
1957
1943
1941
1945
1947
1936
1955
1949
1949
1946
1943
1935
1946
1936
1941
1936
1935
1941
1942
1946
1952
1956
1955
1955
1951
1958
1959
1948
1959
1963
1950
1961
1984
1984
1960
1918
1878
1867
1870
1898
1911
1918
1933
1959
1975
1984
1978
1983
1981
1974
1995
1995
1994
1984
1935
1889
1597
1502
1721
2606
3169
2939
2624
2185
1917
1840
1857
1910
1935
1949
1963
1981
1978
1977
1978
1988
1993
1989
1985
1988
1993
1988
1969
1973
1970
1971
1968
1950
1943
1939
1935
1937
1936
1936
1943
1948
1958
1968
1981
2000
2010
2020
2032
2057
2067
2066
2073
2076
2079
2079
2086
2064
2065
2066
2067
2074
2067
2062
2068
2076
2067
2070
2075
2085
2085
2096
2095
2064
2074
2068
2070
2067
2066
2062
2063
2058
2054
2038
2046
2037
2038
2042
2045
2054
2047
2032
2041
2039
2039
2029
2020
2019
2019
2025
2034
2028
2021
2019
2016
2000
2001
2007
2005
2013
2003
1998
1999
2005
2006
2003
1984
1926
1886
1897
1911
1919
1938
1937
1950
1982
1989
1997
1993
1983
1988
1985
1983
1983
1983
1955
1889
1751
1455
1456
1795
2789
3088
2769
2437
2014
1828
1803
1843
1890
1895
1897
1904
1902
1894
1904
1897
1887
1893
1886
1889
1881
1872
1872
1871
1870
1851
1846
1849
1843
1831
1825
1808
1805
1813
1822
1821
1829
1840
1856
1863
1868
1878
1901
1903
1895
1907
1949
1903
1892
1899
1895
1893
1882
1877
1881
1883
1890
1887
1895
1890
1889
1889
1893
1886
1879
1887
1889
1872
1883
1885
1874
1873
1873
1854
1857
1867
1856
1859
1859
1858
1855
1856
1851
1849
1851
1845
1842
1841
1849
1840
1841
1847
1840
1841
1841
1840
1840
1843
1842
1845
1843
1841
1841
1840
1845
1840
1841
1845
1842
1844
1863
1872
1865
1847
1794
1749
1763
1783
1792
1813
1815
1827
1840
1865
1873
1872
1874
1884
1882
1883
1886
1877
1857
1794
1717
1418
1347
1681
2528
3070
2675
2369
2014
1780
1729
1776
1811
1823
1851
1854
1849
1848
1854
1886
1850
1862
1869
1856
1862
1854
1871
1835
1837
1825
1822
1811
1794
1791
1791
1783
1783
1789
1795
1803
1808
1821
1837
1853
1856
1867
1879
1882
1895
1893
1911
1899
1904
1904
1900
1895
1897
1894
1874
1879
1892
1888
1882
1891
1902
1893
1903
1895
1891
1895
1894
1887
1890
1893
1887
1885
1886
1882
1873
1885
1885
1875
1874
1871
1872
1875
1872
1861
1871
1866
1919
1870
1869
1871
1862
1859
1862
1859
1872
1870
1861
1862
1854
1872
1869
1869
1870
1863
1860
1856
1871
1876
1865
1872
1888
1885
1857
1808
1782
1781
1789
1810
1834
1840
1851
1872
1900
1903
1898
1901
1900
1897
1893
1891
1893
1861
1807
1723
1362
1360
1725
2555
2958
2672
2381
2019
1760
1718
1759
1801
1825
1839
1844
1841
1848
1851
1851
1849
1851
1853
1847
1831
1836
1837
1837
1821
1827
1812
1811
1809
1795
1791
1792
1786
1774
1787
1799
1801
1808
1819
1830
1848
1861
1869
1878
1889
1891
1895
1891
1887
1892
1889
1879
1874
1877
1878
1893
1882
1879
1894
1885
1875
1886
1891
1887
1887
1874
1882
1878
1867
1872
1872
1865
1861
1858
1863
1866
1872
1859
1856
1870
1866
1858
1855
1871
1858
1848
1842
1851
1856
1859
1855
1842
1859
1865
1870
1876
1865
1855
1863
1873
1861
1861
1865
1874
1869
1856
1865
1872
1877
1872
1869
1886
1883
1858
1806
1774
1776
1787
1810
1818
1839
1850
1872
1882
1886
1888
1885
1893
1882
1890
1900
1897
1861
1799
1730
1434
1405
1782
2577
2957
2773
2482
2112
1811
1714
1719
1775
1798
1802
1807
1819
1840
1847
1847
1847
1832
1842
1845
1832
1824
1834
1827
1830
1821
1808
1802
1798
1792
1777
1771
1770
1757
1766
1784
1781
1787
1814
1833
1847
1856
1872
1883
1903
1915
1911
1915
1932
1937
1936
1930
1929
1930
1946
1926
1936
1952
1945
1951
1959
1954
1915
1949
1959
1967
1955
1938
1936
1936
1859
1914
1962
1931
1936
1936
1927
1925
1932
1919
1910
1902
1923
1936
1921
1930
1925
1919
1922
1927
1938
1927
1935
1935
1918
1927
1930
1939
1936
1936
1929
1936
1940
1950
1947
1943
1921
1867
1825
1833
1855
1872
1881
1888
1907
1933
1939
1953
1949
1955
1957
1954
1957
1950
1966
1925
1871
1797
1519
1487
1731
2645
3043
2839
2608
2167
1871
1763
1843
1840
1862
1879
1894
1861
1955
1911
1914
1899
1899
1907
1901
1908
1903
1890
1863
1877
1886
1878
1859
1858
1846
1830
1823
1829
1825
1826
1835
1839
1842
1856
1877
1900
1929
1936
1943
1959
1984
1968
1974
1990
1981
1979
1985
1982
1986
1991
1995
1993
1994
1997
2000
1996
2006
2000
1987
1995
2000
1991
1995
1995
1987
1996
1989
1973
1973
1975
1975
1968
1971
1977
1972
1968
1968
1968
1973
1981
1968
1970
1962
1968
1971
1968
1968
1971
1980
1966
1967
1969
1969
1969
1968
1968
1953
1963
1963
1965
1977
1982
1974
1938
1902
1878
1888
1905
1933
1936
1938
1965
1977
1992
1999
2000
2000
1999
2000
1993
2000
2000
1959
1919
1727
1451
1513
2134
2961
3066
2739
2333
1997
1857
1849
1897
1941
1959
1968
1970
1974
1973
1979
1973
1979
1979
1991
1983
1977
1979
1971
1968
1973
1965
1956
1947
1941
1942
1928
1922
1919
1915
1923
1936
1949
1959
1970
1978
1989
2007
2021
2034
2043
2032
2038
2047
2038
2033
2023
2031
2032
2032
2026
2031
2032
2032
2032
2033
2042
2047
2032
2044
2037
2043
2045
2042
2032
2039
2035
2023
2030
2031
2025
2019
2023
2017
2017
2013
2005
2002
2006
2002
1999
2000
2003
1990
2000
2001
1995
1987
1983
1987
1978
1983
1974
1978
1982
1976
1982
1961
1974
1981
1972
1968
1957
1962
1979
1975
1938
1895
1866
1861
1867
1897
1904
1902
1921
1939
1952
1961
1967
1955
1951
1953
1998
1963
1955
1938
1872
1819
1509
1369
1616
2447
3007
2818
2512
2097
1840
1770
1792
1842
1859
1872
1883
1885
1883
1886
1886
1871
1886
1881
1870
1862
1869
1871
1859
1847
1847
1840
1834
1827
1810
1808
1799
1802
1798
1799
1807
1822
1830
1835
1840
1857
1871
1861
1872
1882
1885
1889
1885
1884
1889
1888
1881
1869
1872
1881
1878
1875
1881
1867
1868
1870
1873
1880
1883
1887
1882
1876
1883
1881
1872
1872
1872
1873
1872
1873
1872
1865
1855
1851
1854
1850
1843
1853
1851
1835
1839
1840
1840
1841
1836
1839
1841
1841
1840
1845
1857
1856
1847
1847
1852
1855
1853
1856
1851
1858
1851
1844
1860
1867
1856
1854
1851
1855
1861
1858
1866
1855
1860
1872
1862
1814
1776
1752
1776
1792
1810
1824
1834
1853
1867
1911
1889
1883
1883
1894
1904
1907
1911
1904
1846
1823
1584
1359
1459
2211
2935
2879
2586
2184
1871
1764
1770
1831
1867
1881
1881
1889
1894
1881
1885
1901
1899
1897
1886
1948
1882
1881
1878
1872
1860
1856
1845
1851
1846
1840
1835
1835
1838
1841
1853
1856
1871
1873
1889
1904
1919
1922
1921
1936
1941
1945
1946
1950
1958
1959
1959
1947
1941
1950
1957
1955
1962
1963
1963
1966
1967
1959
1961
1955
1955
1953
1957
1957
1942
1929
1943
1942
1936
1937
1936
1936
1939
1935
1936
1936
1933
1923
1924
1907
1920
1925
1918
1923
1926
1925
1923
1922
1920
1905
1905
1899
1903
1905
1907
1904
1901
1901
1903
1894
1892
1890
1895
1895
1897
1890
1887
1891
1887
1883
1897
1890
1893
1895
1901
1892
1898
1899
1882
1841
1808
1781
1795
1802
1824
1841
1851
1865
1873
1905
1910
1895
1898
1895
1887
1894
1893
1878
1830
1792
1552
1335
1439
2157
2874
2851
2558
2179
1866
1737
1727
1776
1803
1808
1817
1831
1833
1822
1823
1838
1841
1841
1834
1820
1816
1821
1811
1805
1808
1800
1776
1776
1752
1761
1754
1754
1744
1746
1680
1749
1749
1715
1781
1799
1807
1853
1835
1843
1840
1845
1847
1841
1845
1841
1841
1825
1840
1842
1841
1840
1841
1842
1836
1843
1845
1857
1845
1844
1855
1857
1844
1825
1836
1840
1838
1835
1837
1827
1829
1833
1838
1839
1833
1835
1833
1834
1840
1840
1838
1836
1829
1835
1829
1820
1818
1831
1836
1823
1823
1831
1819
1810
1821
1813
1823
1834
1839
1832
1831
1814
1809
1831
1840
1830
1825
1831
1827
1828
1834
1828
1829
1840
1827
1795
1746
1728
1743
1765
1775
1795
1811
1843
1851
1841
1849
1854
1854
1859
1861
1858
1862
1867
1810
1776
1562
1409
1574
2291
2894
2838
2635
2256
1898
1729
1687
1723
1775
1796
1810
1821
1819
1827
1835
1838
1835
1843
1840
1829
1840
1838
1825
1815
1815
1826
1839
1808
1786
1786
1787
1785
1781
1781
1797
1793
1805
1808
1812
1836
1857
1887
1901
1905
1917
1927
1948
1950
1953
1961
1951
2017
1954
1910
1971
1971
1968
1968
1968
1969
1984
1975
1968
1971
1969
1969
1963
1957
1962
1968
1968
1952
1954
1946
1937
1941
1953
1941
1946
1949
1952
1937
1939
1947
1954
1953
1949
1943
1961
1968
1954
1939
1942
1946
1942
1956
1959
1963
1962
1954
1953
1950
1957
1949
1961
1970
1955
1893
1858
1867
1878
1894
1913
1915
1922
1948
1967
1974
1979
1978
1972
1967
1977
1975
1982
1962
1894
1806
1511
1490
1797
2746
3120
2814
2506
2067
1851
1799
1826
1875
1904
1916
1921
1920
1917
1916
1921
1927
1921
1921
1923
1920
1907
1917
1912
1901
1902
1887
1875
1872
1867
1854
1839
1847
1843
1845
1846
1856
1865
1882
1890
1904
1922
1941
1953
1968
1977
1971
1972
1975
1971
1972
1971
1968
1968
1975
1975
1970
1969
1974
1973
1975
1975
1971
1969
1988
1979
1974
1964
1966
1967
1968
1971
1967
1965
1965
1942
1950
1958
1950
1991
1953
1954
1950
1968
1942
1939
1935
1938
1936
1947
1937
1939
1969
1940
1936
1936
1936
1934
1936
1938
1930
1923
1939
1941
1940
1946
1943
1951
1935
1886
1853
1855
1866
1878
1899
1911
1912
1930
1946
1975
1968
1968
1966
1957
1968
1969
1954
1931
1881
1787
1457
1406
1813
2673
3082
2783
2406
2037
1829
1791
1840
1888
1893
1904
1909
1919
1915
1918
1916
1903
1907
1910
1916
1906
1902
1904
1913
1906
1906
1879
1887
1878
1871
1863
1865
1856
1857
1865
1869
1877
1888
1891
1905
1914
1936
1941
1961
1954
1969
1962
1973
1973
1967
1978
1968
1968
1968
1971
1971
1947
1968
1971
1975
1978
1977
1975
1977
1975
1979
1984
1973
1979
1986
1986
1985
1987
1975
1974
1977
1979
1978
1969
1971
1971
1977
1967
1962
1968
1971
1969
1955
1968
1968
1962
1965
1953
1968
1967
1966
1962
1951
1963
1957
1955
1968
1975
1968
1959
1968
1961
1969
1982
1979
1959
1904
1857
1859
1856
1894
1918
1925
1937
1950
1971
1987
1993
1978
1973
1977
1979
1984
1985
1939
1883
1773
1476
1440
1757
2731
3056
2778
2466
2056
1840
1798
1829
1885
1904
1915
1920
1911
1904
1907
1920
1907
1903
1909
1906
1904
1885
1885
1872
1877
1877
1859
1855
1850
1838
1834
1824
1823
1821
1825
1826
1838
1847
1856
1872
1882
1904
1903
1904
1917
1907
1911
1918
1920
1907
1914
1914
1906
1911
1904
1908
1906
1909
1914
1919
1918
1906
1909
1905
1910
1905
1911
1904
1903
1899
1904
1897
1891
1891
1887
1889
1889
1873
1883
1886
1879
1882
1879
1878
1883
1887
1884
1872
1872
1873
1871
1869
1871
1870
1867
1857
1855
1853
1856
1851
1846
1854
1863
1868
1857
1861
1866
1865
1857
1856
1857
1872
1881
1870
1840
1777
1750
1766
1775
1793
1809
1821
1845
1855
1874
1882
1872
1878
1872
1867
1874
1875
1861
1801
1763
1519
1311
1459
2142
2854
2783
2494
2162
1849
1709
1724
1769
1801
1826
1840
1833
1825
1835
1836
1834
1830
1835
1828
1833
1827
1827
1817
1821
1809
1799
1791
1790
1776
1777
1778
1770
1767
1775
1782
1782
1839
1807
1813
1839
1858
1862
1869
1879
1891
1894
1894
1893
1891
1895
1886
1885
1890
1887
1888
1900
1904
1892
1892
1891
1892
1899
1889
1885
1890
1893
1893
1875
1884
1890
1888
1878
1875
1872
1871
1872
1872
1875
1873
1872
1871
1868
1870
1866
1872
1861
1860
1870
1863
1855
1861
1904
1865
1866
1866
1873
1861
1855
1861
1859
1859
1861
1853
1869
1874
1857
1884
1860
1869
1867
1879
1877
1863
1822
1777
1751
1765
1792
1808
1809
1821
1853
1863
1875
1875
1872
1877
1875
1878
1883
1877
1872
1808
1749
1462
1351
1588
2442
2949
2773
2516
2125
1821
1712
1712
1776
1808
1824
1835
1835
1840
1843
1839
1842
1843
1840
1842
1840
1840
1839
1826
1821
1822
1803
1805
1796
1789
1776
1782
1769
1767
1783
1786
1791
1808
1808
1818
1840
1856
1867
1879
1891
1899
1907
1917
1907
1900
1899
1906
1901
1905
1913
1919
1922
1934
1926
1922
1930
1929
1934
1930
1928
1927
1941
1935
1918
1924
1949
1919
1907
1840
1906
1907
1907
1918
1918
1918
1923
1917
1901
1905
1911
1904
1904
1909
1909
1910
1904
1902
1910
1914
1904
1906
1914
1911
1921
1911
1899
1907
1923
1922
1920
1926
1931
1933
1934
1898
1843
1818
1840
1859
1871
1891
1908
1927
1947
1946
1941
1952
1955
1959
1964
1962
1969
1963
1887
1861
1619
1482
1714
2431
3045
2954
2667
2307
1959
1806
1795
1823
1856
1893
1892
1887
1893
1899
1904
1909
1920
1926
1918
1920
1918
1909
1903
1890
1879
1881
1881
1859
1847
1844
1823
1810
1822
1826
1840
1847
1862
1870
1878
1899
1915
1937
1961
1981
1987
1997
1994
2000
2011
2000
2003
2001
2000
2006
2006
2006
1983
2018
2032
2015
2015
2015
2011
2011
2015
2009
2000
2002
2005
1997
1986
1982
1984
1984
1984
1985
1989
1996
1979
1979
1984
1986
1983
1984
1981
1978
1979
1984
1968
1968
1974
1977
1970
1969
1967
1968
1969
1968
1966
1970
1970
1975
1987
1984
2000
2000
1982
1907
1879
1878
1903
1916
1936
1936
1940
1957
1961
1971
1983
1993
1984
1981
1984
1985
1974
1963
1894
1818
1517
1452
1800
2650
3133
2867
2480
2114
1867
1808
1854
1885
1910
1935
1943
1934
1936
1943
1942
1938
1933
1927
1937
1949
1942
1927
1929
1922
1920
1919
1904
1897
1913
1867
1856
1857
1857
1856
1863
1876
1873
1879
1907
1923
1926
1937
1942
1952
1959
1969
1968
1970
1978
1968
1968
1971
1963
1961
1966
1968
1955
1962
1968
1966
1965
1968
1964
1965
1968
1968
1962
1956
1967
1959
1953
1955
1954
1959
1950
1945
1943
1948
1947
1937
1947
1938
1938
1936
1926
1927
1947
1937
1933
1930
1937
1931
1936
1936
1920
1922
1923
1927
1917
1922
1918
1927
1915
1907
1917
1921
1936
1921
1914
1899
1841
1814
1831
1823
1840
1872
1872
1874
1910
1920
1920
1927
1920
1921
1927
1933
1930
1931
1908
1843
1722
1408
1379
1714
2694
3014
2733
2416
1999
1793
1761
1794
1841
1859
1877
1886
1882
1882
1889
1894
1891
1894
1886
1886
1873
1883
1877
1887
1866
1859
1857
1854
1838
1834
1829
1823
1814
1827
1815
1836
1847
1835
1840
1863
1893
1898
1909
1920
1914
1919
1931
1934
1921
1908
1910
1913
1920
1921
1897
1908
1917
1913
1919
1925
1918
1918
1915
1919
1921
1930
1931
1936
1927
1918
1910
1911
1914
1917
1917
1920
1909
1937
1915
1902
1902
1905
1904
1904
1908
1903
1894
1894
1907
1904
1894
1888
1897
1891
1899
1904
1890
1891
1895
1903
1905
1904
1895
1888
1905
1897
1894
1903
1902
1895
1904
1907
1910
1897
1851
1814
1803
1820
1840
1863
1866
1878
1897
1918
1925
1923
1936
1936
1937
1929
1931
1934
1923
1863
1814
1521
1395
1646
2419
3015
2785
2495
2151
1877
1792
1831
1872
1891
1904
1916
1921
1925
1920
1922
1920
1932
1936
1920
1920
1926
1920
1918
1910
1897
1895
1897
1886
1878
1872
1863
1857
1863
1865
1872
1892
1885
1909
1935
1947
1957
1966
1984
1991
1985
1995
1991
1987
1990
1984
1978
1974
1979
1983
1989
1996
1991
1996
2000
1997
1990
2000
2001
1995
1958
1998
1991
1994
1998
1983
2002
1995
1969
1904
1974
1961
1927
1982
1985
1978
1977
1984
1978
1978
1979
1971
1967
1971
1972
1969
1973
1968
1968
1957
1952
1950
1958
1959
1957
1962
1948
1950
1953
1953
1943
1938
1946
1953
1951
1954
1945
1941
1943
1950
1936
1942
1946
1901
1854
1837
1842
1853
1872
1879
1883
1907
1922
1926
1944
1939
1929
1933
1935
1932
1930
1923
1869
1829
1610
1382
1477
2151
2878
2874
2598
2230
1904
1755
1754
1799
1825
1843
1856
1858
1855
1856
1854
1856
1863
1861
1858
1869
1849
1840
1849
1847
1837
1839
1823
1806
1802
1792
1779
1775
1771
1772
1777
1785
1805
1819
1825
1840
1843
1861
1869
1872
1879
1897
1900
1889
1887
1887
1883
1895
1903
1895
1899
1898
1889
1895
1894
1904
1910
1904
1902
1893
1885
1887
1904
1898
1886
1891
1905
1902
1901
1905
1885
1889
1882
1876
1866
1865
1867
1872
1872
1869
1872
1858
1858
1862
1864
1860
1856
1862
1866
1870
1860
1851
1856
1867
1851
1863
1862
1845
1853
1871
1863
1856
1871
1861
1874
1885
1872
1866
1840
1794
1759
1764
1780
1792
1815
1828
1840
1871
1879
1883
1889
1886
1890
1893
1890
1883
1888
1845
1810
1650
1407
1530
2025
2781
2903
2681
2401
2030
1780
1710
1744
1789
1798
1823
1822
1821
1836
1844
1829
1836
1830
1843
1857
1845
1835
1814
1822
1827
1820
1805
1807
1800
1795
1786
1761
1757
1769
1762
1772
1776
1795
1814
1826
1846
1872
1893
1904
1911
1915
1931
1929
1927
1932
1933
1926
1932
1939
1936
1936
1944
1965
1973
1962
1964
1950
1945
1955
1962
1963
1941
1947
1957
1953
1930
1953
1952
1951
1936
1936
1925
1933
1946
1936
1928
1934
1936
1936
1936
1937
1931
1933
1934
1931
1935
1933
1926
1923
1929
1936
1934
1933
1929
1932
1934
1943
1937
1949
1936
1906
1847
1836
1841
1842
1862
1882
1886
1908
1923
1933
1941
1957
1937
1933
1947
1937
1930
1934
1884
1869
1658
1438
1563
2106
2966
2944
2683
2365
1957
1798
1776
1811
1843
1877
1899
1898
1894
1898
1895
1903
1902
1891
1898
1895
1899
1888
1878
1872
1870
1872
1860
1847
1840
1823
1823
1829
1818
1801
1808
1810
1829
1840
1856
1860
1883
1905
1923
1925
1936
1955
1967
1961
1959
1950
1958
1968
1955
1943
1956
1955
1958
1961
1958
1958
1974
1970
1967
1968
1979
1980
1978
1979
1970
1968
1968
1970
1959
1968
1955
1961
1963
1963
1946
1947
1943
1945
1941
1946
1942
1933
1933
1934
1938
1939
1936
1933
1936
1933
1932
1938
1933
1935
1931
1931
1934
1926
1933
1940
1946
1943
1920
1872
1837
1841
1845
1853
1873
1886
1902
1920
1936
1942
1943
1948
1950
1931
1939
1943
1954
1926
1859
1815
1456
1408
1712
2547
3053
2741
2418
2061
1803
1777
1819
1857
1888
1898
1904
1902
1910
1907
1906
1904
1910
1901
1895
1899
1895
1895
1901
1886
1875
1871
1871
1859
1856
1845
1835
1841
1849
1841
1843
1857
1868
1872
1889
1905
1911
1934
1931
1936
1946
1952
1947
1956
1943
1942
1939
1937
1935
1936
1937
1938
1941
1939
1935
1937
1947
1947
1941
1949
1953
1958
1957
1953
1946
1955
1963
1958
1942
1957
1950
1936
1936
1939
1935
1936
1942
1932
1937
1938
1926
1927
1920
1925
1919
1920
1931
1923
1926
1925
1923
1921
1928
1932
1922
1919
1931
1920
1923
1924
1919
1920
1915
1920
1945
1933
1927
1923
1891
1831
1818
1840
1853
1870
1871
1889
1908
1924
1933
1935
1936
1925
1923
1918
1930
1937
1923
1872
1839
1583
1360
1447
2215
2918
2878
2559
2187
1872
1765
1790
1840
1869
1882
1890
1895
1895
1891
1900
1904
1894
1894
1888
1902
1904
1891
1889
1885
1885
1884
1876
1872
1857
1858
1853
1841
1855
1850
1852
1863
1874
1879
1879
1901
1910
1919
1922
1920
1927
1930
1937
1929
1920
1926
1918
1920
1919
1925
1919
1923
1926
1912
1927
1933
1933
1935
1924
1915
1920
1936
1937
1930
1936
1929
1923
1924
1918
1923
1934
1929
1920
1919
1916
1915
1911
1910
1922
1915
1910
1905
1909
1918
1915
1906
1908
1913
1904
1905
1904
1895
1897
1904
1898
1885
1904
1899
1891
1905
1930
1904
1904
1906
1904
1909
1904
1903
1903
1910
1914
1929
1927
1910
1875
1824
1813
1823
1842
1869
1872
1876
1904
1922
1920
1929
1934
1936
1936
1935
1938
1947
1936
1872
1843
1565
1383
1527
2200
2975
2839
2566
2224
1876
1792
1810
1851
1881
1903
1910
1907
1905
1909
1918
1923
1920
1905
1905
1922
1907
1911
1910
1915
1919
1904
1873
1942
1888
1893
1872
1878
1879
1877
1881
1895
1907
1924
1936
1956
1968
1984
1985
1996
2000
2013
2011
1994
2018
2018
2013
2017
2006
2018
2027
2030
2017
2020
2018
2032
2031
2035
2032
2035
2045
2055
2027
2025
2032
2032
2030
2029
2046
2042
2034
2034
2039
2053
2047
2042
2033
2030
2059
2055
2034
2033
2018
2000
2018
2010
2000
2003
2005
2010
2022
2015
1998
1983
1993
2001
1978
1981
1999
1979
1966
1979
1984
1970
1964
1968
1962
1979
1983
1974
1970
1965
1915
1856
1845
1869
1897
1904
1908
1925
1936
1954
1949
1950
1945
1943
1957
1958
1952
1937
1945
1867
1790
1531
1458
1724
2547
2978
2821
2608
2195
1862
1727
1714
1763
1773
1795
1797
1805
1821
1823
1808
1808
1814
1821
1809
1801
1809
1811
1808
1801
1792
1791
1792
1764
1773
1745
1725
1742
1760
1750
1744
1747
1776
1765
1781
1813
1825
1846
1855
1859
1867
1886
1883
1887
1882
1872
1881
1881
1876
1898
1905
1889
1901
1906
1904
1891
1898
1907
1902
1891
1887
1884
1893
1888
1877
1889
1872
1858
1870
1869
1874
1856
1857
1860
1858
1872
1872
1866
1859
1860
1865
1856
1862
1873
1872
1859
1851
1868
1863
1865
1855
1861
1859
1865
1861
1869
1869
1872
1871
1872
1877
1857
1814
1767
1773
1787
1779
1797
1823
1827
1856
1871
1883
1883
1879
1871
1870
1871
1871
1872
1861
1797
1756
1456
1396
1636
2387
2990
2768
2479
2122
1795
1712
1730
1779
1805
1817
1859
1838
1838
1839
1840
1830
1831
1840
1829
1837
1835
1823
1819
1816
1807
1795
1803
1798
1777
1772
1763
1763
1769
1760
1750
1766
1776
1792
1809
1825
1840
1860
1872
1882
1883
1887
1898
1898
1904
1902
1890
1889
1897
1893
1903
1904
1899
1905
1904
1896
1902
1907
1913
1907
1911
1919
1910
1909
1902
1909
1911
1916
1906
1899
1906
1901
1903
1906
1904
1903
1904
1904
1904
1904
1899
1892
1894
1898
1897
1895
1904
1909
1901
1897
1904
1903
1890
1901
1904
1898
1895
1897
1895
1891
1903
1909
1921
1903
1839
1813
1825
1835
1842
1857
1857
1872
1898
1914
1920
1922
1920
1915
1926
1927
1925
1937
1915
1857
1802
1506
1344
1533
2435
3057
2852
2505
2080
1823
1773
1808
1859
1883
1901
1904
1908
1909
1910
1906
1904
1904
1904
1904
1903
1902
1904
1899
1901
1899
1892
1879
1872
1867
1869
1856
1862
1856
1856
1857
1867
1889
1891
1904
1922
1926
1936
1933
1945
1955
1951
1941
1957
1947
1944
1943
1938
1931
1936
1937
1929
1931
1938
1924
1935
1946
1945
1941
1938
1937
1933
1942
1949
1952
1947
1943
1939
1943
1951
1936
1936
1936
1927
1913
1920
1925
1924
1930
1911
1918
1925
1923
1923
1920
1916
1916
1905
1915
1917
1913
1907
1910
1907
1916
1911
1906
1904
1904
1910
1904
1907
1911
1899
1910
1915
1911
1914
1872
1821
1808
1823
1838
1904
1860
1876
1895
1915
1920
1926
1931
1933
1921
1925
1921
1926
1922
1859
1829
1572
1341
1505
2208
2966
2903
2575
2245
1873
1773
1790
1843
1866
1882
1889
1887
1892
1895
1895
1871
1895
1887
1872
1877
1894
1891
1885
1873
1872
1863
1864
1850
1856
1847
1846
2006
2007
2015
2006
2005
2003
2008
2014
2011
2017
2018
2021
2023
2022
2013
2027
2023
2018
2016
2012
2013
2010
2011
2014
2007
2013
2016
2015
2012
2007
2018
2032
2026
2032
2070
1984
2032
2027
2019
1996
2082
2043
2098
2055
2096
2106
2079
2078
2098
2101
2080
2065
2036
2000
1991
1985
1987
1979
1984
1991
1993
2000
1983
1918
1856
1789
1759
1969
2527
3194
2988
2497
2054
1717
1643
1689
1804
1893
1937
1963
1971
1989
2007
2000
2009
1994
2002
2015
2032
2029
2032
2038
2045
2063
2044
2018
2025
2039
2046
2054
2047
2062
2067
2053
2034
2034
2032
2039
2034
2030
2025
1998
1971
1968
1962
1958
1938
1922
1923
1920
1907
1904
1919
1931
1933
1936
1925
1919
1936
1947
1961
1952
1945
1938
1945
1955
1944
1932
1950
1943
1930
1925
1925
1930
1922
1920
1934
1933
1931
1916
1910
1911
1913
1905
1910
1919
1918
1901
1897
1910
1918
1918
1915
1911
1917
1911
1902
1906
1905
1904
1918
1919
1911
1905
1915
1921
1916
1918
1929
1921
1948
1985
1984
1969
1959
1977
1984
1969
1961
1934
1899
1890
1872
1874
1879
1867
1865
1877
1875
1888
1876
1792
1759
1675
1683
2003
2624
3078
2832
2313
1899
1622
1547
1603
1703
1776
1819
1856
1870
1877
1885
1904
1906
1909
1913
1921
1936
1923
1936
1936
1950
1949
1952
1957
1947
1946
1955
1952
1955
1954
1957
1953
1954
1956
1959
1947
1943
1940
1926
1926
1914
1899
1879
1872
1871
1871
1863
1850
1855
1858
1867
1866
1870
1878
1872
1882
1883
1887
1896
1906
1892
1895
1902
1901
1903
1903
1899
1899
1898
1895
1882
1891
1881
1878
1885
1875
1872
1873
1872
1873
1873
1878
1866
1857
1865
1874
1867
1866
1859
1858
1858
1868
1863
1872
1870
1870
1872
1872
1871
1872
1873
1882
1885
1887
1883
1879
1874
1892
1891
1902
1931
1959
1962
1936
1936
1954
1946
1937
1923
1894
1877
1862
1854
1867
1862
1867
1872
1882
1881
1872
1824
1770
1705
1667
1863
2550
3136
2977
2439
1867
1589
1535
1627
1766
1830
1869
1882
1903
1925
1923
1927
1942
1961
1961
1966
1982
1981
1984
1986
2000
1999
2011
2023
2032
2036
2047
2046
2064
2074
2078
2075
2070
2071
2078
2070
2062
2045
2032
2015
1984
1971
1966
1958
1955
1955
1950
1950
1937
1941
1938
1950
1941
1947
1956
1962
1980
1983
1989
1986
1997
1997
1999
1989
1999
1996
1999
1998
2000
1999
1997
1993
1993
1994
1986
1989
1984
1989
1987
1991
1984
1979
1979
1981
1985
1977
1983
1982
1985
1975
1983
1980
1968
1965
1968
1968
1978
1969
1969
1974
1974
1974
1974
1982
1991
2013
2039
2066
2059
2032
2039
2061
2032
2021
2002
1968
1937
1943
1934
1935
1936
1938
1945
1942
1937
1918
1840
1798
1710
1744
2096
2761
3179
2752
2213
1792
1569
1595
1712
1812
1869
1901
1922
1938
1954
1955
1959
1963
1971
1973
1975
1984
1994
1989
1996
2004
2011
2005
2015
2025
2023
2027
2032
2030
2039
2032
2032
2032
2032
2023
2017
2013
1995
1973
1954
1946
1926
1907
1898
1887
1875
1872
1863
1869
1872
1872
1878
1884
1889
1885
1886
1885
1888
1902
1901
1902
1894
1904
1904
1903
1902
1891
1887
1887
1889
1886
1875
1878
1875
1871
1863
1873
1871
1865
1866
1860
1862
1857
1858
1857
1861
1855
1853
1858
1850
1858
1856
1851
1856
1854
1853
1856
1867
1871
1869
1875
1873
1902
1921
1952
1939
1909
1930
1933
1920
1919
1895
1858
1840
1827
1824
1817
1819
1829
1854
1840
1840
1822
1752
1701
1591
1647
1979
2629
3027
2646
2129
1713
1482
1486
1606
1730
1802
1822
1841
1857
1870
1872
1892
1883
1885
1889
1904
1901
1909
1922
1927
1907
1904
1936
1946
1935
1953
1959
1968
1958
1951
1963
1958
1963
1965
1959
1939
1935
1926
1906
1893
1872
1867
1858
1862
1855
1843
1840
1840
1827
1839
1840
1841
1858
1866
1858
1856
1862
1861
1872
1877
1885
1885
1882
1885
1897
1900
1889
1887
1891
1892
1891
1894
1886
1894
1893
1890
1891
1877
1888
1874
1872
1881
1878
1878
1890
1888
1878
1874
1890
1893
1899
1887
1890
1892
1898
1922
1935
1971
1985
1967
1952
1975
1967
1968
1953
1923
1883
1873
1872
1869
1917
1885
1866
1888
1886
1892
1862
1775
1712
1631
1759
2330
2933
3031
2586
2026
1682
1550
1575
1650
1810
1856
1879
1910
1920
1926
1936
1938
1953
1951
1960
1959
1970
1978
1986
1994
1999
1995
2003
2000
2005
1999
2011
2010
2007
2001
2006
2001
2000
2000
1989
1995
1991
1979
1967
1951
1939
1926
1918
1904
1904
1907
1909
1891
1894
1904
1907
1909
1919
1918
1919
1925
1934
1947
1947
1939
1943
1952
1951
1955
1951
1951
1945
1952
1951
1951
1951
1915
1943
1939
1947
1941
1936
1937
1940
1943
1970
1946
1943
1936
1941
1941
1936
1945
1950
1979
1999
2021
2003
1982
2001
2011
2000
1985
1968
1921
1904
1895
1897
1895
1898
1901
1904
1906
1904
1874
1791
1726
1647
1730
2155
2945
3149
2672
2132
1683
1545
1581
1695
1813
1866
1898
1920
1930
1940
1949
1959
1968
1959
1969
1972
1985
1984
1999
1995
1998
2000
2002
2009
2006
2014
2018
2023
2022
2022
2019
2025
2021
2021
2021
2010
2003
1990
1975
1965
1947
1936
1920
1905
1905
1903
1911
1903
1901
1920
1921
1914
1918
1929
1931
1927
1935
1930
1932
1943
1933
1937
1935
1937
1939
1940
1929
1939
1946
1941
1939
1936
1937
1936
1936
1939
1938
1954
1987
2019
2061
2072
2095
2102
2065
2018
1979
1920
1876
1856
1843
1845
1856
1857
1862
1872
1882
1885
1884
1824
1725
1643
1596
1806
2518
3051
2866
2345
1807
1524
1486
1593
1759
1826
1865
1889
1901
1906
1920
1935
1947
1945
1950
1959
1959
1964
1968
1981
1979
1975
2000
1999
2001
2014
2018
2000
2005
2016
2013
2003
2005
2003
2002
2002
1983
1982
1981
1967
1939
1935
1922
1911
1904
1901
1889
1882
1904
1904
1903
1905
1904
1911
1917
1924
1923
1925
1928
1926
1943
1942
1938
1941
1943
1943
1936
1935
1936
1936
1921
1923
1915
1919
1915
1914
1904
1906
1920
1914
1915
1920
1919
1910
1911
1905
1919
1916
1913
1917
1915
1915
1910
1911
1915
1916
1921
1914
1911
1911
1918
1919
1943
1982
2000
1989
1961
1966
1983
1973
1954
1936
1913
1890
1872
1872
1878
1875
1882
1886
1891
1895
1875
1801
1744
1666
1667
1945
2672
3091
2798
2283
1789
1568
1545
1628
1776
1840
1872
1897
1903
1904
1919
1918
1929
1937
1945
1943
1941
1938
1951
1953
1947
1954
1951
1961
1952
1962
1962
1955
1964
1972
1968
1969
1978
1973
1970
1957
1949
1938
1934
1934
1919
1904
1890
1875
1872
1872
1860
1870
1881
1878
1892
1886
1882
1898
1905
1904
1910
1911
1916
1921
1919
1915
1934
1920
1931
1929
1920
1914
1916
1905
1905
1907
1914
1915
1918
1906
1899
1908
1902
1888
1901
1903
1898
1898
1899
1902
1901
1904
1888
1889
1912
1919
1910
1905
1907
1911
1906
1901
1914
1907
1920
1924
1919
1904
1906
1920
1943
1981
1979
1966
1923
1938
1968
1979
1971
1945
1906
1889
1877
1886
1872
1883
1898
1893
1895
1918
1903
1821
1762
1681
1699
1958
2624
3037
2832
2467
1998
1701
1587
1595
1683
1760
1811
1853
1882
1898
1919
1904
1923
1929
1926
1936
1941
1958
1957
1965
1968
1968
1975
1984
1983
1981
1983
1976
1989
1981
1968
1984
1984
1973
1973
1978
1977
1983
1975
1967
1956
1953
1954
1943
1940
1939
1936
1932
1931
1934
1936
1951
1968
1966
1959
1958
1964
1971
1987
1991
1981
1991
2013
1995
1987
1984
1986
1988
1984
1970
1968
1968
1968
1972
1968
1963
1963
1965
1957
1952
1968
1978
1972
1968
1977
1983
1984
1979
1979
1978
1981
1975
1981
1982
1981
1987
2007
2043
2059
2064
2043
2039
2064
2064
2030
2028
2000
1969
1951
1937
1936
1936
1936
1943
1961
1963
1968
1934
1856
1818
1733
1872
2387
3120
3257
2698
2154
1767
1623
1671
1778
1869
1926
1960
1970
1979
1995
2001
2009
2018
2017
2029
2032
2025
2033
2047
2058
2047
2047
2054
2058
2070
2064
2073
2080
2083
2082
2087
2077
2081
2068
2069
2067
2057
2037
2022
2003
2000
1987
1971
1959
1957
1949
1952
1947
1936
1951
1949
1957
1953
1963
1965
1958
1967
1975
1970
1981
1984
1978
1981
1978
1974
1973
1979
1970
1966
1968
1965
1957
1963
1943
1948
1948
1950
1942
1941
1941
1933
1935
1939
1922
1932
1924
1923
1929
1931
1930
1931
1925
1935
1936
1931
1937
1930
1923
1930
1925
1922
1927
1926
1922
1928
1939
1940
1967
1997
2002
1983
1968
1984
1971
1984
1963
1931
1887
1873
1870
1872
1878
1872
1872
1875
1888
1881
1839
1771
1709
1623
1771
2288
3047
3053
2490
1975
1600
1517
1584
1706
1805
1837
1856
1872
1879
1895
1907
1912
1917
1915
1954
1923
1925
1935
1939
1935
1947
1950
1953
1957
1974
1981
1979
1967
1984
1995
1975
1994
1990
1987
1984
1987
1969
1952
1930
1922
1899
1953
1876
1868
1854
1856
1851
1842
1851
1853
1858
1863
1867
1866
1874
1887
1889
1889
1898
1911
1913
1911
1911
1904
1915
1910
1920
1905
1919
1914
1917
1920
1929
1923
1925
1930
1924
1925
1926
1922
1925
1924
1922
1923
1926
1925
1920
1936
1936
1927
1930
1936
1933
1946
1946
1949
1954
1954
1946
1949
1957
1967
1957
1960
1959
1959
1961
1967
1971
1959
1968
1982
1981
1993
1984
1986
2003
2032
2032
2011
1970
1983
1999
2017
2015
2015
2003
1977
1953
1968
1975
1973
1970
1975
1974
1991
1968
1899
1867
1780
1780
2092
2742
3263
2887
2335
1886
1659
1644
1733
1829
1903
1927
1921
1963
1970
1969
2021
1989
1994
1998
2000
2001
2007
2016
2018
2022
2031
2032
2027
2027
2032
2034
2039
2037
2042
2037
2036
2032
2029
2032
2021
2007
1989
1974
1968
1941
1924
1909
1905
1897
1887
1882
1874
1879
1879
1872
1877
1878
1879
1890
1897
1891
1893
1890
1895
1904
1906
1898
1904
1899
1894
1894
1892
1900
1886
1883
1884
1882
1884
1889
1867
1863
1878
1870
1862
1871
1853
1856
1856
1862
1851
1859
1850
1845
1855
1849
1850
1855
1861
1853
1857
1856
1856
1851
1856
1852
1859
1855
1853
1856
1870
1872
1872
1872
1867
1863
1866
1872
1878
1868
1872
1877
1892
1906
1906
1871
1849
1877
1902
1894
1882
1877
1857
1840
1839
1834
1833
1841
1843
1854
1861
1862
1829
1743
1695
1607
1712
2229
2864
3027
2588
1998
1658
1504
1511
1650
1744
1789
1813
1842
1840
1846
1856
1869
1863
1872
1879
1877
1893
1904
1904
1904
1910
1913
1915
1919
1923
1925
1936
1938
1934
1938
1936
1942
1953
1946
1939
1927
1925
1904
1890
1877
1861
1841
1834
1827
1813
1809
1808
1799
1803
1809
1814
1808
1830
1863
1825
1819
1827
1841
1840
1824
1839
1840
1853
1847
1853
1856
1856
1847
1848
1857
1849
1853
1852
1842
1846
1842
1840
1840
1847
1843
1830
1840
1846
1843
1829
1850
1842
1859
1853
1843
1847
1843
1855
1862
1861
1861
1850
1855
1857
1858
1869
1878
1863
1861
1874
1866
1869
1872
1872
1872
1867
1873
1882
1878
1882
1881
1898
1904
1909
1907
1907
1875
1880
1917
1941
1936
1935
1904
1879
1888
1899
1902
1889
1890
1904
1920
1920
1895
1842
1795
1703
1719
2001
2704
3117
2864
2438
1955
1698
1607
1638
1728
1805
1849
1872
1893
1904
1921
1932
1939
1941
1950
1957
1962
1970
1973
1977
1973
1985
1999
1995
1997
2000
1994
2007
1999
1996
1997
1995
1994
1990
1987
1981
1974
1991
1968
2000
1936
1930
1933
1978
1906
1867
1904
1901
1898
1897
1861
1912
1899
1919
1926
1907
1936
1934
1936
1938
1942
1943
1937
1941
1943
1952
1965
1961
1962
1953
1946
1950
1955
1941
1937
1936
1941
1938
1925
1934
1936
1936
1936
1935
1930
1920
1922
1937
1927
1926
1930
1923
1923
1921
1920
1920
1920
1907
1910
1917
1920
1926
1921
1917
1923
1929
1920
1921
1926
1936
1949
1971
1974
1953
1974
1981
1958
1959
1955
1932
1898
1888
1891
1899
1898
1901
1904
1905
1911
1886
1808
1784
1694
1723
2078
2763
3245
2801
2237
1792
1564
1575
1680
1773
1835
1869
1891
1903
1920
1922
1933
1934
1938
1939
1942
1957
1966
1962
1968
1967
1982
1985
1986
1984
1998
2003
2004
2015
2020
2027
2023
2017
2027
2017
2007
1994
1978
1965
1937
1926
1911
1888
1883
1875
1872
1872
1872
1866
1861
1872
1875
1870
1881
1888
1891
1893
1893
1898
1901
1906
1909
1904
1918
1919
1917
1922
1918
1914
1917
1920
1915
1904
1911
1911
1911
1918
1915
1906
1906
1908
1904
1911
1914
1906
1909
1904
1897
1914
1904
1901
1905
1910
1901
1899
1901
1907
1915
1903
1904
1903
1910
1914
1920
1926
1939
1967
1968
1942
1954
1968
1969
1966
1939
1922
1902
1889
1877
1895
1893
1886
1895
1903
1905
1903
1826
1779
1715
1680
1955
2542
3134
2927
2304
1846
1585
1526
1647
1775
1840
1869
1888
1902
1920
1923
1933
1926
1936
1949
1949
1959
1970
1968
1977
1984
1990
1987
2006
2006
2015
2021
2012
2038
2042
2033
2029
2041
2033
2033
2031
2011
1997
1987
1969
1941
1925
1907
1895
1882
1886
1890
1887
1879
1875
1878
1886
1895
1898
1901
1913
1904
1906
1921
1920
1923
1995
1922
1920
1929
1936
1947
1938
1945
1984
1939
1946
1937
1935
1936
1937
1941
1939
1937
1919
1934
1936
1934
1939
1935
1927
1933
1938
1936
1935
1930
1935
1927
1938
1941
1936
1935
1945
1904
1942
1938
1936
1942
1950
1953
1939
1943
1959
1963
1968
1986
2017
2001
1981
2009
2019
2015
2007
1987
1978
1949
1936
1939
1946
1950
1942
1959
1968
1968
1936
1851
1804
1722
1809
2213
2979
3174
2689
2176
1753
1616
1640
1747
1862
1907
1945
1963
1973
1983
2000
2002
2010
2015
2019
2021
2032
2026
2032
2046
2061
2059
2065
2074
2082
2080
2085
2086
2102
2101
2092
2098
2114
2112
2106
2085
2069
2053
2034
2016
1995
1970
1967
1959
1958
1953
1935
1923
1929
1935
1932
1934
1927
1926
1933
1951
1953
1951
1947
1943
1934
1958
1969
1968
1966
1949
1942
1942
1946
1943
1933
1927
1925
1920
1919
1917
1904
1904
1903
1894
1898
1897
1883
1888
1892
1891
1887
1873
1872
1878
1879
1877
1872
1870
1875
1872
1872
1872
1871
1866
1873
1872
1860
1867
1872
1861
1874
1869
1879
1969
1894
1860
1885
1914
1898
1901
1892
1872
1842
1834
1818
1809
1826
1834
1836
1825
1834
1830
1753
1707
1624
1616
1927
2517
2947
2755
2278
1882
1609
1484
1522
1609
1702
1744
1795
1807
1794
1799
1835
1845
1840
1838
1853
1858
1866
1879
1893
1889
1879
1873
1890
1899
1903
1905
1905
1915
1920
1909
1904
1911
1920
1920
1908
1911
1904
1887
1858
1846
1842
1839
1830
1835
1835
1823
1835
1835
1834
1840
1830
1834
1847
1851
1845
1853
1869
1875
1871
1867
1872
1886
1890
1885
1889
1895
1890
1901
1904
1882
1879
1893
1897
1882
1907
1835
1885
1879
1891
1885
1873
1873
1883
1884
1872
1877
1882
1888
1886
1888
1888
1889
1878
1877
1881
1885
1890
1894
1904
1913
1934
1939
1920
1919
1936
1936
1921
1922
1931
1895
1879
1865
1863
1871
1893
1870
1874
1891
1891
1843
1771
1731
1633
1772
2250
2938
3127
2614
2093
1713
1545
1553
1654
1749
1808
1840
1869
1882
1895
1907
1907
1909
1914
1929
1924
1936
1940
1938
1945
1951
1911
1957
1958
1978
1985
1991
1999
1999
2000
2007
2000
1995
1998
1995
1993
1982
1968
1938
1935
1917
1904
1897
1881
1890
1881
1879
1873
1862
1867
1870
1872
1883
1891
1891
1875
1887
1906
1911
1904
1904
1904
1904
1903
1904
1907
1905
1909
1919
1910
1910
1914
1914
1908
1908
1922
1915
1906
1911
1908
1905
1907
1904
1891
1898
1905
1903
1901
1899
1899
1910
1905
1906
1904
1912
1904
1911
1911
1906
1903
1927
1947
1958
1974
1951
1952
1978
1969
1969
1943
1933
1918
1904
1904
1894
1903
1900
1907
1916
1919
1925
1860
1789
1750
1682
1847
2359
3038
3135
2528
2015
1674
1557
1616
1738
1830
1879
1904
1909
1930
1934
1936
1951
1956
1954
1970
1979
1981
1993
2001
2005
2007
2017
2030
2029
2035
2041
2038
2059
2074
2086
2085
2096
2082
2081
2085
2074
2064
2052
2028
1984
1974
1954
1946
1941
1936
1934
1938
1937
1931
1934
1939
1936
1945
1948
1947
1949
1963
1968
1969
1963
1972
1973
1981
1984
1978
1978
1986
1993
1986
1987
1987
1984
1988
1986
1968
1970
1981
1981
1979
1973
1971
1969
1966
1973
1968
1964
1970
1973
1968
1971
1981
1979
1983
1979
1973
1968
1975
1972
1975
1980
1967
1969
1968
1989
2014
2020
1983
1994
2012
2015
2000
2000
1975
1939
1932
1936
1919
1934
1930
1921
1937
1949
1952
1875
1811
1754
1694
1904
2483
3088
2944
2415
1931
1631
1549
1621
1741
1824
1847
1877
1900
1951
1899
1894
1933
1929
2011
1943
1945
1940
1957
1960
1959
1958
1967
1981
1979
1971
1983
1985
1984
1998
2000
1999
2002
2000
1998
2000
1986
1968
1954
1927
1894
1890
1875
1857
1859
1853
1838
1840
1841
1834
1829
1840
1850
1847
1846
1856
1865
1863
1870
1868
1865
1868
1859
1863
1870
1867
1867
1865
1858
1858
1867
1871
1867
1871
1865
1853
1857
1863
1859
1857
1867
1856
1860
1858
1869
1866
1869
1872
1860
1867
1869
1855
1857
1861
1850
1854
1847
1853
1851
1855
1856
1849
1856
1856
1855
1857
1855
1853
1856
1862
1861
1857
1856
1872
1886
1904
1923
1898
1884
1907
1911
1907
1900
1874
1849
1833
1843
1840
1840
1840
1834
1845
1845
1841
1809
1733
1698
1619
1745
2199
2832
3027
2495
1986
1645
1488
1520
1628
1713
1776
1811
1826
1834
1840
1857
1857
1864
1872
1870
1851
1870
1881
1890
1891
1903
1905
1919
1923
1926
1931
1936
1943
1939
1951
1965
1957
1968
1965
1941
1943
1937
1913
1903
1872
1858
1837
1828
1827
1808
1812
1819
1805
1798
1808
1822
1831
1821
1829
1824
1840
1853
1842
1846
1845
1835
1855
1851
1856
1865
1860
1862
1859
1856
1841
1842
1857
1862
1851
1861
1872
1856
1853
1844
1842
1857
1885
1889
1870
1866
1850
1867
1862
1863
1881
1883
1872
1872
1876
1861
1871
1883
1885
1876
1891
1886
1895
1872
1889
1914
1915
1872
1872
1885
1872
1872
1872
1882
1907
1917
1913
1915
1907
1855
1883
1911
1919
1917
1913
1904
1878
1891
1883
1865
1869
1893
1901
1904
1904
1897
1831
1776
1681
1719
2032
2623
3038
2798
2407
2000
1719
1599
1619
1694
1755
1814
1856
1874
1898
1901
1913
1906
1927
1929
1927
1933
1939
1958
1958
1966
1971
1966
1973
1981
1985
1983
1979
1974
1982
1995
1993
1979
1995
1991
1985
1985
1974
1959
1951
1950
1930
1916
1916
1899
1898
1883
1890
1905
1905
1910
1901
1889
1916
1918
1920
1924
1920
1919
1934
1945
1941
1940
1935
1937
1938
1950
1952
1937
1935
1942
1935
1939
1937
1935
1921
1908
1920
1918
1916
1920
1913
1914
1906
1904
1904
1899
1904
1913
1910
1899
1902
1904
1904
1904
1905
1906
1914
1923
1911
1911
1911
1917
1991
1953
1981
1979
1957
1943
1977
1972
1963
1957
1938
1904
1851
1864
1869
1884
1887
1887
1893
1887
1888
1862
1786
1735
1648
1745
2174
2993
3214
2679
2128
1687
1527
1567
1677
1774
1835
1857
1870
1890
1901
1906
1909
1920
1923
1920
1938
1947
1951
1956
1965
1968
1968
1971
1983
1986
1980
2000
2007
2015
2017
2021
2025
2029
2026
2015
2009
2001
1979
1959
1937
1925
1910
1895
1885
1872
1877
1869
1869
1877
1862
1867
1876
1886
1872
1876
1893
1898
1907
1910
1898
1904
1917
1917
1923
1922
1926
1931
1934
1933
1926
1923
1922
1923
1925
1930
1920
1927
1922
1926
1917
1931
1921
1917
1926
1925
1914
1920
1930
1933
1919
1921
1917
1916
1926
1920
1919
1915
1915
1920
1915
1911
1915
1917
1927
1926
1936
1970
1986
1984
1970
1964
1986
1979
1969
1965
1941
1967
1897
1887
1884
1889
1887
1899
1898
1905
1907
1882
1808
1760
1686
1738
2112
2906
3191
2726
2179
1711
1552
1568
1680
1805
1855
1883
1904
1911
1915
1920
1921
1941
1947
1939
1961
1968
1958
1967
1969
1978
1981
1987
1989
1994
2034
2010
2000
2015
2030
2032
2034
2039
2047
2034
2027
2011
2000
1968
1957
1938
1911
1903
1879
1890
1877
1867
1862
1872
1872
1873
1872
1875
1876
1885
1883
1886
1897
1903
1902
1910
1909
1904
1905
1908
1915
1915
1917
1906
1919
1921
1927
1920
1924
1917
1915
1923
1921
1922
1911
1920
1924
1920
1920
1927
1921
1920
1916
1915
1920
1923
1922
1927
1929
1931
1924
1927
1935
1930
1935
1937
1936
1936
2015
1937
1942
1949
1963
1996
1996
1968
1973
1999
1995
1984
1979
1968
1943
1923
1927
1921
1923
1924
1933
1925
1937
1949
1913
1833
1793
1714
1831
2412
3067
3155
2640
2045
1712
1602
1649
1791
1875
1918
1936
1949
1956
1962
1970
1983
1985
1994
1988
1999
2002
2019
2027
2032
2039
2055
2058
2064
2072
2091
2083
2096
2102
2109
2115
2117
2115
2122
2123
2115
2093
2079
2057
2027
2002
1982
1983
1969
1962
1958
1958
1961
1957
1954
1966
1970
1970
1976
1989
2000
2003
2003
2005
2019
2030
2026
2035
2035
2032
2031
2030
2015
2011
2027
2022
2022
2018
2007
2003
2002
2015
2007
2002
2003
1994
1991
1988
1994
1989
1983
1979
1994
1989
1974
1965
1971
1968
1967
1974
1978
1968
1956
1968
1966
1966
1974
1957
1952
1968
1967
1954
1959
1957
1950
1949
1951
1979
1995
1984
1971
1983
1978
1969
1962
1940
1926
1899
1905
1872
1882
1894
1901
1905
1924
1891
1840
1775
1739
1658
1818
2319
2922
2974
2465
2036
1707
1553
1562
1664
1739
1797
1833
1840
1852
1853
1861
1878
1891
1874
1885
1908
1911
1904
1905
1905
1909
1910
1911
1931
1927
1923
1936
1950
1945
1934
1938
1936
1946
1950
1927
1932
1916
1902
1893
1872
1843
1843
1838
1827
1822
1818
1805
1794
1795
1806
1821
1828
1817
1813
1829
1815
1825
1831
1835
1835
1851
1846
1840
1859
1868
1857
1856
1856
1856
1866
1875
1862
1863
1873
1863
1853
1862
1856
1847
1855
1856
1851
1849
1861
1859
1862
1862
1837
1862
1874
1859
1860
1863
1867
1866
1872
1875
1875
1878
1886
1886
1889
1889
1889
1890
1914
1926
1936
1884
1911
1928
1947
1942
1937
1927
1915
1883
1875
1866
1865
1872
1884
1879
1900
1901
1879
1824
1771
1712
1676
1946
2539
3095
2966
2416
1975
1685
1575
1600
1682
1773
1830
1860
1874
1889
1889
1903
1913
1924
1925
1938
1938
1951
1954
1954
1966
1943
1979
1986
1986
1987
1983
1979
1987
1991
1995
2000
1997
2000
2002
1989
1983
1978
1968
1942
1923
1913
1903
1898
1893
1884
1886
1880
1873
1872
1877
1884
1894
1925
1897
1888
1884
1894
1893
1905
1920
1910
1904
1911
1919
1917
1914
1919
1906
1906
1913
1905
1901
1904
1904
1900
1890
1893
1883
1875
1874
1877
1875
1882
1888
1886
1877
1872
1872
1871
1911
1872
1870
1870
1866
1863
1869
1862
1863
1940
1872
1877
1915
1937
1932
1905
1904
1936
1915
1938
1853
1878
1853
1834
1820
1827
1820
1826
1831
1843
1853
1857
1826
1734
1695
1616
1673
2153
2845
3125
2658
2029
1650
1474
1488
1637
1738
1780
1821
1840
1841
1863
1872
1867
1873
1888
1886
1903
1903
1904
1910
1920
1931
1925
1936
1943
1945
1952
1963
1968
1984
1984
1977
1979
1986
1979
1972
1979
1962
1950
1925
1909
1885
1869
1850
1840
1823
1833
1826
1817
1817
1829
1824
1838
1838
1831
1840
1846
1847
1860
1859
1857
1872
1872
1873
1873
1872
1831
1868
1875
1874
1882
1889
1879
1858
1865
1872
1860
1847
1861
1812
1854
1868
1861
1858
1867
1873
1858
1859
1865
1860
1861
1850
1862
1871
1877
1872
1874
1876
1872
1871
1870
1886
1873
1870
1872
1898
1922
1938
1936
1904
1919
1941
1923
1925
1925
1891
1854
1851
1851
1854
1850
1854
1858
1872
1873
1872
1824
1762
1684
1632
1811
2326
3039
2967
2438
1950
1586
1501
1573
1695
1785
1823
1856
1863
1872
1887
1906
1915
1911
1925
1931
1938
1945
1943
1946
1948
1959
1969
1976
1980
1983
1997
2002
2005
2013
2018
2015
2018
2019
2015
2009
2007
1985
1970
1953
1938
1911
1894
1879
1872
1861
1866
1856
1857
1865
1857
1856
1861
1863
1872
1872
1878
1882
1886
1904
1911
1905
1911
1905
1905
1904
1905
1904
1904
1902
1899
1891
1901
1904
1904
1904
1899
1898
1899
1906
1904
1903
1898
1902
1895
1887
1889
1889
1890
1883
1885
1878
1890
1888
1892
1895
1890
1888
1898
1895
1893
1899
1899
1898
1895
1905
1906
1936
1970
1979
1968
2021
1977
1967
1962
1937
1919
1874
1866
1860
1869
1872
1867
1867
1878
1881
1873
1856
1776
1725
1647
1725
2131
2882
3046
2587
2095
1666
1519
1552
1665
1783
1818
1852
1875
1882
1895
1903
1908
1930
1935
1937
1936
1938
1943
1952
1951
1966
1968
1970
1982
1981
2014
1951
1989
1978
2000
2007
2014
2010
1957
1993
1986
1984
1966
1947
1925
1904
1899
1875
1862
1856
1856
1847
1843
1850
1847
1855
1857
1858
1869
1865
1869
1872
1878
1877
1872
1886
1901
1903
1887
1890
1889
1892
1886
1891
1887
1898
1902
1890
1900
1893
1893
1889
1891
1889
1879
1870
1872
1876
1877
1886
1887
1872
1875
1878
1883
1890
1887
1883
1887
1881
1888
1904
1902
1904
1890
1872
1887
1904
1899
1895
1895
1901
1905
1914
1950
1961
1960
1936
1936
1956
1951
1939
1926
1903
1907
1862
1871
1872
1861
1856
1856
1870
1883
1869
1829
1775
1708
1648
1818
2288
2880
2917
2535
2110
1776
1575
1576
1653
1745
1807
1838
1856
1889
1905
1898
1899
1914
1901
1917
1927
1937
1943
1950
1947
1949
1968
1975
1981
1968
1968
1973
1981
1983
1996
2000
1998
1995
2000
1998
1991
1975
1961
1961
1955
1937
1920
1899
1889
1898
1878
1888
1881
1889
1891
1901
1902
1889
1892
1909
1916
1907
1905
1920
1920
1932
1934
1936
1936
1939
1936
1936
1956
1941
1936
1936
1931
1933
1936
1937
1934
1925
1911
1915
1907
1920
1913
1915
1910
1920
1923
1927
1911
1916
1924
1923
1927
1920
1914
1907
1911
1917
1926
1952
1968
1991
1989
1968
1968
1981
1968
1962
1955
1917
1890
1878
1875
1883
1879
1879
1882
1890
1904
1895
1837
1776
1700
1666
1883
2462
3165
2992
2450
1968
1625
1548
1598
1711
1807
1847
1876
1890
1903
1907
1923
1933
1938
1949
1942
1949
1959
1954
1962
1971
1970
1983
1986
1985
1985
2000
2003
2006
2014
2017
2010
2011
2015
2017
2015
2007
1992
1971
1959
1934
1919
1907
1903
1893
1872
1879
1875
1883
1874
1879
1883
1898
1904
1902
1907
1910
1905
1908
1907
1907
1927
1926
1922
1927
1924
1932
1931
1927
1929
1931
1921
1872
1922
1929
1920
1919
1921
1927
1921
1920
1920
1909
1927
1926
1919
1921
1914
1920
1914
1916
1921
1914
1918
1914
1914
1910
1909
1909
1915
1919
1943
1971
1991
1993
1961
1971
1986
1979
1963
1933
1906
1885
1875
1878
1881
1875
1878
1883
1904
1899
1883
1809
1777
1711
1671
1931
2544
3120
2870
2318
1840
1574
1521
1627
1741
1817
1856
1875
1890
1895
1905
1923
1924
1935
1941
1941
1952
1967
1942
1963
1981
1975
1982
1987
1994
1993
2007
2011
2018
2029
2031
2031
2035
2033
2036
2019
2013
2000
1973
1958
1936
1920
1897
1885
1873
1898
1867
1867
1867
1868
1872
1871
1871
1882
1882
1879
1889
1892
1901
1904
1914
1921
1919
1925
1921
1920
1926
1927
1931
1927
1931
1926
1872
1936
1931
1930
1923
1933
1930
1934
1929
1937
1938
1936
1938
1933
1932
1939
1941
1943
1938
1941
1950
1942
1949
1940
1941
1943
1957
1963
1957
1963
2000
2026
2039
2032
2005
2029
2034
2022
2001
1989
1965
1941
1934
1936
1935
1939
1951
1947
1948
1959
1936
1855
1822
1731
1789
2157
2816
3216
2765
2235
1822
1616
1629
1742
1841
1911
1938
1963
1981
1978
1991
2000
2006
2014
2028
2038
2043
2047
2063
2053
2063
2075
2083
2083
2085
2097
2101
2103
2112
2110
2112
2114
2115
2112
2113
2100
2090
2078
2055
2023
2002
2000
1983
1968
1962
1955
1947
1946
1947
1949
1959
1951
1949
1951
1966
1959
1962
1967
1963
1968
1963
1966
1971
1974
1970
1967
1971
1978
1970
1967
1967
1959
1954
1954
1941
1942
1953
1949
1941
1945
1939
1933
1931
1932
1875
1926
1929
1926
1918
1907
1914
1918
1915
1910
1899
1903
1904
1905
1904
1897
1889
1909
1923
1940
1967
1961
1930
1936
1963
1949
1942
1943
1918
1872
1853
1854
1853
1851
1859
1854
1862
1869
1859
1813
1741
1698
1615
1754
2193
2813
2928
2502
2042
1705
1526
1551
1621
1721
1783
1807
1826
1839
1855
1859
1856
1868
1893
1906
1885
1879
1899
1895
1894
1903
1915
1917
1919
1931
1935
1936
1938
1915
1937
1945
1943
1937
1938
1941
1946
1952
1889
1891
1872
1846
1845
1836
1826
1825
1824
1807
1809
1802
1900
1811
1791
1814
1839
1872
1819
1829
1835
1814
1819
1830
1835
1840
1849
1856
1841
1840
1853
1854
1842
1841
1846
1851
1823
1840
1856
1840
1832
1831
1840
1833
1840
1840
1832
1834
1847
1839
1827
1835
1850
1825
1826
1840
1845
1855
1873
1899
1902
1897
1879
1873
1901
1888
1872
1864
1842
1817
1805
1805
1819
1819
1832
1831
1826
1825
1827
1802
1726
1673
1600
1750
2329
2937
2962
2573
2037
1702
1520
1514
1616
1702
1757
1797
1824
1838
1839
1858
1869
1872
1872
1870
1873
1884
1808
1889
1905
1915
1914
1915
1920
1926
1916
1923
1940
1938
1936
1937
1936
1936
1941
1946
1938
1937
1930
1917
1903
1886
1879
1872
1858
1856
1858
1858
1850
1851
1862
1866
1854
1858
1872
1872
1872
1871
1873
1877
1893
1888
1890
1898
1900
1906
1905
1899
1903
1907
1903
1899
1898
1904
1895
1903
1893
1890
1897
1898
1892
1889
1890
1891
1899
1934
1965
1978
2007
2034
2057
2034
1991
1954
1919
1874
1850
1839
1837
1829
1830
1835
1836
1846
1847
1854
1821
1741
1698
1594
1654
2074
2905
3179
2665
2086
1604
1467
1517
1648
1748
1803
1834
1856
1867
1872
1881
1891
1904
1904
1909
1918
1925
1923
1934
1941
1942
1953
1955
1974
1971
1985
1987
1987
2014
2014
2013
2010
2007
2010
2011
2002
1988
1968
1946
1927
1905
1894
1887
1872
1867
1870
1875
1872
1859
1863
1875
1885
1872
1878
1890
1883
1891
1899
1906
1909
1914
1894
1903
1909
1914
1910
1917
1922
1909
1914
1921
1915
1904
1904
1908
1901
1899
1893
1890
1899
1899
1893
1903
1904
1898
1897
1902
1899
1899
1898
1904
1904
1907
1902
1895
1899
1904
1904
1904
1904
1904
1911
1925
1939
1970
1984
1959
1946
1971
1967
1942
1935
1916
1883
1872
1879
1866
1870
1872
1874
1880
1886
1893
1926
1763
1719
1645
1762
2347
2976
3033
2524
1897
1611
1519
1581
1723
1802
1845
1860
1876
1891
1903
1919
1918
1920
1908
1931
1938
1946
1947
1953
1966
1974
1971
1977
1977
1985
1987
1986
1994
1997
2000
2000
2007
2000
2013
2000
1999
1993
1978
1951
1923
1914
1904
1889
1872
1871
1863
1857
1856
1856
1858
1866
1866
1862
1869
1870
1876
1879
1891
1882
1904
1895
1901
1904
1904
1891
1906
1889
1903
1885
1907
1898
1903
1926
1902
1897
1899
1878
1883
1889
1883
1887
1890
1889
1881
1890
1893
1891
1889
1893
1889
1881
1887
1888
1896
1904
1909
1932
1959
1987
1969
1941
1967
1971
1953
1941
1931
1894
1875
1869
1872
1872
1872
1873
1878
1888
1893
1878
1803
1761
1667
1680
1967
2607
3119
2778
2251
1818
1535
1521
1627
1761
1840
1863
1886
1906
1917
1915
1936
1939
1949
1952
1951
1962
1974
1976
1978
1973
1973
1985
2000
2001
1997
2002
2021
2021
2032
2030
2021
2042
2042
2031
2023
2007
1999
1973
1966
1958
1923
1920
1931
1920
1921
1904
1856
1905
1909
1908
1909
1909
1903
1909
1921
1938
1936
1942
1947
1951
1955
1963
1966
1966
1972
1963
1965
1965
1967
1958
1956
1963
1977
1963
1963
1949
1957
1965
1953
1946
1951
1951
1954
1955
1963
1954
1956
1968
1953
1949
1954
1959
1949
1962
1968
1968
1983
2015
2033
2026
2023
2005
2010
2006
2014
2011
1995
1951
1925
1927
1933
1936
1932
1937
1958
1968
1953
1909
1843
1790
1717
1847
2290
2905
3024
2673
2255
1872
1653
1647
1711
1795
1850
1877
1919
1943
1952
1937
1943
1971
1971
1984
1994
1988
1999
2016
2020
2023
2015
2030
2033
2018
2029
2032
2037
2037
2033
2029
2030
2023
2030
2032
2030
2015
2003
2000
1986
1969
1963
1941
1950
1953
1936
1936
1938
1941
1936
1938
1950
1939
1947
1943
1941
1959
1971
1958
1959
1968
1969
1973
1968
1966
1965
1968
1965
1959
1939
1957
1952
1939
1936
1930
1926
1927
1919
1920
1927
1920
1919
1915
1904
1911
1911
1904
1911
1904
1911
1918
1941
1954
1971
1961
1939
1959
1951
1937
1927
1900
1872
1846
1829
1834
1845
1837
1838
1847
1856
1840
1808
1722
1666
1579
1680
2122
2934
3135
2624
2064
1619
1470
1487
1614
1723
1770
1805
1812
1823
1846
1858
1857
1871
1878
1872
1857
1885
1891
1879
1891
1893
1901
1904
1914
1914
1926
1926
1921
1921
1934
1937
1936
1934
1925
1918
1923
1914
1884
1867
1845
1841
1830
1824
1808
1802
1803
1799
1795
1787
1805
1807
1808
1811
1808
1808
1814
1825
1830
1840
1831
1840
1842
1847
1855
1842
1842
1839
1840
1844
1846
1847
1848
1839
1821
1827
1835
1835
1831
1838
1826
1829
1833
1815
1832
1820
1822
1825
1840
1830
1825
1840
1867
1893
1907
1906
1866
1889
1901
1872
1856
1849
1821
1792
1785
1718
1827
1788
1790
1783
1792
1799
1788
1710
1665
1584
1571
1938
2629
3058
2736
2094
1648
1427
1430
1577
1680
1747
1776
1798
1809
1817
1831
1838
1840
1843
1856
1872
1867
1874
1887
1890
1891
1903
1907
1919
1926
1923
1933
1946
1954
1946
1949
1957
1959
1955
1954
1947
1935
1921
1904
1875
1859
1841
1830
1822
1823
1813
1803
1804
1808
1817
1817
1814
1822
1827
1842
1825
1839
1850
1856
1863
1861
1863
1875
1875
1883
1867
1875
1885
1877
1873
1872
1867
1872
1875
1865
1872
1867
1870
1873
1872
1869
1870
1872
1872
1869
1872
1874
1876
1883
1886
1885
1878
1886
1891
1905
1937
1962
1975
1971
1946
1961
1983
1953
1941
1935
1904
1888
1877
1873
1871
1870
1879
1886
1888
1897
1872
1802
1765
1685
1695
1995
2646
3115
2748
2228
1797
1567
1550
1654
1765
1830
1879
1905
1914
1918
1936
1942
1949
1953
1953
1958
1965
1957
1984
1995
1990
2064
2002
2010
2015
2022
2023
2025
2034
2042
2034
2043
2043
2039
2032
2031
2024
2006
1995
1969
1954
1933
1919
1910
1904
1904
1890
1893
1891
1891
1893
1909
1904
1898
1905
1919
1911
1915
1925
1927
1926
1922
1926
1925
1935
1935
1936
1934
1921
1919
1919
1910
1910
1899
1909
1908
1901
1900
1885
1900
1904
1906
1900
1904
1888
1894
1889
1890
1891
1892
1899
1899
1918
1940
1954
1982
1968
1939
1963
1973
1962
1947
1925
1890
1869
1866
1867
1858
1869
1878
1878
1885
1894
1878
1791
1747
1667
1655
1993
2641
3088
2814
2211
1781
1552
1520
1639
1745
1820
1856
1877
1893
1904
1911
1922
1936
1938
1943
1950
1962
1955
1965
1962
1965
1982
1983
1990
2000
2000
2003
2003
2013
2010
2007
2000
2003
2025
2018
2000
1980
1974
1967
1941
1911
1917
1906
1877
1866
1861
1869
1869
1862
1855
1860
1873
1869
1872
1872
1869
1895
1885
1885
1856
1904
1909
1907
1899
1897
1901
1899
1898
1901
1898
1890
1897
1899
1887
1883
1875
1887
1877
1883
1865
1874
1872
1866
1869
1866
1886
1872
1870
1873
1872
1887
1885
1884
1899
1913
1936
1936
1914
1917
1943
1929
1920
1922
1888
1856
1841
1837
1855
1853
1840
1826
1840
1872
1882
1841
1747
1707
1633
1771
2291
2870
2906
2529
2053
1723
1561
1534
1626
1722
1776
1804
1835
1859
1881
1875
1873
1895
1898
1900
1904
1906
1934
1928
1938
1941
1943
1946
1943
1951
1962
1975
1968
1966
1962
1964
1971
1968
1969
1965
1966
1965
1956
1943
1926
1910
1912
1920
1889
1879
1881
1890
1891
1882
1875
1893
1900
1897
1838
1902
1910
1919
1914
1923
1926
1936
1941
1946
1939
1943
1943
1939
1939
1951
1945
1940
1936
1931
1934
1940
1930
1931
1926
1935
1931
1934
1931
1951
1921
1927
1930
1920
1923
1950
1978
2000
1996
1963
1978
2000
1982
1967
1955
1921
1891
1874
1873
1872
1882
1841
1837
1893
1894
1889
1811
1765
1674
1674
1968
2619
3206
2891
2353
1889
1587
1549
1614
1726
1808
1841
1856
1883
1898
1913
1920
1918
1919
1934
1924
1936
1941
1953
1955
1953
1964
1965
1968
1974
1979
1975
1983
1991
1979
1982
1984
1975
1977
1974
1969
1966
1961
1941
1917
1907
1898
1887
1878
1872
1866
1865
1862
1854
1854
1866
1863
1867
1877
1881
1872
1882
1904
1904
1906
1899
1898
1904
1893
1899
1903
1904
1904
1895
1904
1898
1888
1882
1891
1877
1883
1881
1879
1879
1879
1879
1903
1922
1951
1970
2000
2015
2033
2047
2017
1995
1951
1901
1856
1831
1827
1812
1813
1821
1824
1824
1833
1839
1830
1776
1707
1629
1569
1774
2493
3080
2925
2352
1759
1475
1440
1527
1682
1749
1781
1808
1835
1840
1856
1867
1887
1878
1893
1891
1905
1914
1914
1922
1921
1936
1940
1980
1954
1959
1926
1977
1973
2015
1982
1972
1984
1990
1991
1981
1973
1973
1936
1916
1902
1889
1875
1872
1853
1842
1851
1853
1850
1854
1855
1856
1861
1866
1865
1867
1874
1878
1885
1886
1892
1897
1901
1887
1899
1911
1899
1902
1905
1902
1895
1891
1901
1894
1889
1898
1903
1897
1893
1890
1886
1892
1901
1887
1882
1893
1902
1889
1889
1894
1900
1889
1891
1897
1889
1895
1898
1847
1914
1936
1968
1987
1965
1934
1962
1958
1953
1941
1915
1885
1867
1867
1862
1872
1859
1871
1879
1890
1885
1840
1761
1733
1648
1735
2267
2920
3081
2597
1984
1639
1507
1551
1680
1775
1828
1850
1871
1883
1887
1902
1914
1919
1922
1929
1936
1938
1954
1951
1959
1971
1963
1973
1977
1985
1984
1987
2000
2002
2005
2015
2014
2013
2011
2011
1997
1985
1966
1947
1932
1922
1909
1895
1889
1875
1877
1878
1873
1872
1878
1878
1886
1887
1900
1904
1904
1907
1907
1905
1915
1914
1909
1925
1922
1914
1919
1918
1909
1909
1916
1911
1904
1915
1909
1909
1906
1898
1898
1899
1905
1905
1901
1904
1901
1904
1906
1900
1904
1898
1904
1904
1910
1915
1910
1939
1924
1917
1936
1959
1984
1989
1961
1983
1971
1979
1968
1963
1927
1902
1873
1879
1874
1871
1873
1888
1868
1893
1884
1843
1760
1719
1648
1774
2381
2997
3005
2506
1935
1611
1505
1567
1710
1799
1841
1861
1875
1905
1908
1915
1923
1927
1926
1989
1934
1940
1946
1954
1965
1966
1968
1957
1968
1981
1978
2007
1996
1987
1991
1942
1996
1984
1979
1941
1981
1979
1954
1935
1911
1898
1886
1877
1862
1845
1850
1849
1850
1850
1853
1865
1860
1857
1869
1871
1862
1863
1892
1886
1876
1878
1888
1887
1902
1894
1895
1898
1893
1882
1877
1889
1887
1875
1873
1863
1866
1872
1862
1871
1866
1857
1872
1879
1872
1857
1867
1866
1857
1841
1842
1872
1877
1862
1859
1869
1917
1925
1927
1925
1906
1925
1936
1926
1920
1901
1893
1858
1818
1840
1839
1849
1858
1863
1862
1875
1858
1783
1743
1663
1711
2027
2645
3042
2723
2317
1939
1673
1583
1632
1712
1792
1839
1869
1887
1936
1910
1951
1929
1921
1943
1947
1962
1969
1982
1979
1990
2001
2009
2007
2007
2007
2027
2023
2031
2032
2034
2039
2045
2036
2032
2032
2032
2030
2015
2009
1989
1992
1975
1967
1968
1965
1968
1968
1971
1975
1968
2031
1986
1995
1993
1985
2000
2007
2015
2013
2016
2035
2039
2046
2042
2039
2042
2055
2045
2041
2044
2034
2029
2030
2030
2021
2023
2027
2010
2018
2026
2023
2021
2011
2015
2023
2015
2020
2017
2013
2032
2056
2086
2111
2096
2065
2082
2085
2075
2046
2027
2000
1979
1975
1967
1969
1972
1968
1973
1981
1975
1962
1882
1843
1731
1787
2176
2893
3335
2837
2275
1838
1614
1623
1729
1840
1901
1919
1942
1957
1957
1967
1981
1987
1991
1996
1987
1989
2000
2004
2000
2005
2014
2005
2017
2021
2021
2017
2025
2013
2011
2013
2014
2015
2018
2017
2000
1995
1967
1953
1936
1914
1903
1902
1895
1872
1870
1860
1863
1857
1862
1864
1863
1871
1862
1872
1877
1875
1874
1885
1892
1901
1891
1895
1902
1909
1895
1890
1881
1885
1887
1883
1885
1886
1884
1878
1881
1877
1870
1866
1867
1859
1863
1869
1859
1867
1856
1853
1857
1856
1854
1859
1858
1859
1862
1880
1904
1933
1938
1915
1904
1908
1905
1903
1891
1870
1830
1815
1793
1897
1807
1786
1810
1819
1831
1826
1786
1703
1653
1593
1737
2246
2983
2956
2432
1916
1520
1448
1523
1648
1741
1775
1799
1824
1830
1847
1843
1851
1858
1873
1870
1870
1873
1871
1886
1898
1887
1895
1910
1911
1913
1917
1921
1923
1921
1927
1934
1943
1936
1936
1936
1925
1913
1904
1883
1860
1845
1833
1818
1808
1805
1798
1801
1799
1797
1805
1809
1805
1803
1824
1825
1821
1818
1829
1830
1840
1841
1840
1854
1849
1840
1851
1855
1856
1847
1852
1831
1855
1846
1852
1841
1840
1840
1840
1829
1839
1836
1835
1841
1844
1837
1842
1838
1839
1846
1847
1828
1842
1895
1845
1863
1871
1893
1920
1931
1912
1891
1916
1911
1897
1879
1856
1810
1799
1813
1811
1811
1813
1813
1816
1840
1827
1765
1708
1664
1597
1813
2383
2981
2935
2324
1840
1531
1454
1551
1666
1759
1799
1819
1836
1849
1857
1867
1887
1899
1904
1910
1916
1917
1919
1918
1919
1931
1943
1937
1911
1963
1963
1969
1973
1978
1969
1970
1974
1975
1975
1975
1965
1966
1942
1910
1889
1873
1857
1847
1843
1831
1835
1839
1842
1845
1844
1847
1840
1843
1856
1863
1866
1869
1870
1872
1889
1886
1885
1883
1891
1888
1891
1888
1879
1887
1898
1885
1888
1900
1900
1883
1896
1894
1890
1889
1895
1887
1888
1894
1882
1891
1891
1893
1896
1897
1903
1893
1903
1894
1898
1904
1911
1936
1951
1963
1942
1937
1968
1961
1940
1933
1919
1872
1869
1871
1869
1865
1867
1865
1857
1872
1874
1840
1746
1685
1621
1762
2226
2950
2987
2505
2010
1615
1509
1552
1672
1773
1811
1840
1868
1887
1894
1903
1904
1912
1907
1919
1918
1918
1925
1936
1943
1949
1947
1963
1968
1968
1969
1970
1975
1979
1988
1984
1987
1974
1982
1991
1982
1968
1971
1934
1928
1867
1893
1888
1897
1907
1904
1840
1943
1936
1872
1870
1872
1877
1877
1879
1888
1906
1920
1911
1909
1925
1925
1920
1907
1913
1931
1936
1921
1923
1923
1924
1930
1936
1930
1913
1905
1925
1936
1921
1905
1923
1919
1904
1911
1931
1923
1905
1906
1943
1943
1917
1927
1953
1968
1998
2000
1971
1982
2005
1989
1974
1968
1942
1904
1902
1887
1887
1901
1887
1903
1920
1921
1911
1835
1792
1713
1730
1998
2582
3067
2835
2422
2015
1732
1606
1611
1678
1777
1856
1888
1904
1902
1906
1936
1923
1936
1936
1951
1958
1961
1959
1968
1974
1983
1982
1991
2001
1995
1987
2000
1995
1992
2000
1998
1974
1981
1982
1975
1982
1987
1973
1968
1958
1941
1935
1927
1920
1909
1904
1905
1908
1909
1908
1896
1899
1917
1919
1924
1926
1930
1933
1937
1936
1942
1953
1946
1954
1947
1951
1939
1934
1934
1931
1926
1918
1909
1918
1918
1910
1913
1910
1906
1942
1981
1997
2015
2035
2074
2045
2019
1980
1943
1897
1867
1851
1843
1845
1851
1842
1850
1847
1844
1847
1823
1742
1702
1597
1648
2127
2835
3153
2702
2083
1675
1477
1488
1639
1743
1790
1826
1855
1861
1871
1867
1878
1888
1899
1902
1903
1911
1920
1929
1942
1931
1936
1947
1962
1963
1967
1974
1974
1984
1981
1967
1971
1974
1970
1971
1965
1954
1942
1913
1904
1889
1879
1871
1860
1862
1862
1851
1851
1856
1840
1845
1856
1856
1856
1863
1859
1856
1871
1869
1872
1871
1880
1885
1881
1882
1879
1881
1883
1883
1873
1873
1874
1873
1878
1878
1872
1872
1875
1882
1879
1874
1874
1872
1889
1920
1954
1971
1991
2004
2029
2011
1975
1936
1895
1843
1821
1808
1810
1803
1811
1806
1808
1818
1825
1811
1775
1698
1633
1553
1731
2279
3039
2974
2415
1879
1510
1451
1526
1664
1770
1797
1811
1840
1850
1856
1859
1867
1872
1885
1891
1892
1903
1915
1909
1920
1929
1931
1946
1952
1954
1958
1968
1974
1979
1984
1989
1991
1993
1985
1984
1979
1961
1936
1919
1907
1892
1874
1862
1855
1854
1864
1857
1856
1857
1865
1872
1881
1882
1883
1898
1901
1910
1913
1915
1920
1925
1926
1923
1922
1936
1936
1932
1930
1930
1936
1935
1932
1933
1935
1941
1947
1947
1948
1946
1950
1946
1950
1945
1945
1947
1954
1955
1947
1946
1953
1968
1989
2011
2043
2059
2027
2025
2046
2042
2029
2021
1986
1957
1951
1953
1949
1949
1958
1967
1968
1975
1961
1893
1854
1782
1745
2026
2675
3231
3005
2359
1911
1666
1637
1755
1866
1936
1982
2003
2018
2023
2032
2059
2064
2064
2064
2077
2074
2088
2103
2105
2099
2098
2107
2112
2112
2121
2122
2123
2130
2139
2135
2135
2128
2122
2122
2122
2113
2096
2065
2045
2037
2021
2000
1998
1995
1983
1982
1968
1969
1975
1969
1971
1975
1987
1988
1981
1986
1989
1983
1987
1987
1976
1986
1989
1975
1969
1975
1978
1968
1973
1964
1964
1953
1967
1959
1949
1950
1939
1941
1950
1937
1933
1937
1938
1936
1933
1935
1936
1963
1993
2000
1995
1971
1994
1995
1984
1983
1969
1936
1899
1872
1872
1872
1867
1872
1878
1886
1885
1878
1821
1757
1685
1644
1856
2400
2997
2815
2352
1920
1581
1475
1534
1658
1762
1805
1823
1838
1855
1865
1863
1872
1883
1874
1876
1895
1903
1888
1895
1895
1895
1904
1904
1898
1913
1905
1907
1905
1891
1890
1889
1891
1894
1903
1893
1894
1854
1845
1852
1834
1818
1811
1788
1776
1792
1792
1805
1769
1772
1783
1792
1775
1795
1814
1813
1808
1785
1787
1808
1823
1813
1818
1810
1823
1820
1819
1819
1812
1825
1814
1808
1798
1792
1783
1790
1808
1794
1779
1794
1805
1787
1785
1785
1776
1782
1799
1818
1840
1851
1859
1847
1839
1866
1856
1827
1808
1810
1780
1760
1768
1767
1761
1770
1755
1772
1783
1776
1751
1674
1614
1523
1667
2213
2811
2896
2535
2032
1681
1474
1454
1551
1635
1702
1747
1776
1778
1793
1808
1809
1808
1821
1840
1854
1840
1840
1859
1866
1872
1872
1872
1876
1893
1895
1889
1894
1891
1882
1891
1881
1885
1883
1878
1899
1893
1876
1872
1851
1842
1829
1826
1827
1834
1821
1815
1810
1818
1823
1827
1831
1839
1849
1841
1851
1854
1867
1867
1862
1865
1863
1875
1884
1885
1889
1874
1871
1874
1872
1872
1871
1862
1863
1869
1861
1872
1856
1870
1873
1902
1933
1951
1972
2002
2019
2001
1968
1930
1904
1846
1809
1798
1785
1837
1802
1805
1808
1818
1819
1813
1776
1712
1647
1569
1713
2240
3031
3010
2464
1927
1521
1442
1520
1653
1755
1789
1822
1839
1850
1856
1872
1881
1893
1898
1901
1911
1922
1927
1923
1936
1936
1943
1957
1963
1957
1963
1971
1974
1989
1990
1987
1986
1991
1983
1975
1974
1954
1936
1920
1910
1901
1881
1877
1867
1859
1851
1847
1854
1858
1862
1863
1881
1876
1877
1886
1889
1898
1906
1905
1915
1921
1920
1911
1906
1922
1923
1920
1930
1921
1911
1915
1915
1915
1911
1908
1909
1915
1907
1910
1904
1909
1905
1904
1907
1907
1905
1913
1907
1907
1915
1917
1906
1918
1922
1922
1938
1971
1995
2007
1987
1963
1981
1981
1974
1962
1935
1910
1891
1883
1891
1895
1879
1889
1902
1907
1904
1844
1782
1739
1670
1883
2481
3119
3050
2401
1907
1606
1542
1647
1761
1830
1872
1898
1904
1924
1936
1937
1948
1966
1969
1980
1989
1986
1994
2000
2013
2006
2015
2015
2057
2032
2043
2047
2061
2063
2070
2070
2079
2087
2080
2071
2063
2039
2032
2005
1987
1974
1959
1943
1936
1936
1933
1930
1929
1935
1941
1941
1940
1950
1952
1963
1965
1960
1967
1974
1981
1984
1995
1985
1989
1994
1988
1984
1983
1981
1978
1968
1968
1971
1965
1968
1968
1968
1971
1962
1966
1963
1958
1968
1966
1953
1955
1957
1961
1959
1968
1985
2006
2033
2039
2003
2009
2029
2000
1999
1981
1943
1920
1910
1911
1902
1907
1904
1917
1917
1922
1898
1835
1779
1702
1679
1947
2591
3149
2862
2297
1833
1583
1535
1654
1775
1833
1869
1886
1897
1907
1920
1927
1936
1947
1947
1944
1946
1958
1967
1966
1975
1980
1979
1986
1984
1984
1984
1998
2000
1994
2003
1990
1986
2000
1991
1984
1971
1954
1924
1910
1901
1876
1863
1860
1849
1846
1841
1845
1839
1845
1842
1840
1851
1853
1861
1862
1859
1870
1865
1869
1860
1866
1881
1878
1878
1856
1845
1853
1869
1859
1855
1847
1849
1841
1830
1831
1833
1833
1817
1808
1815
1823
1815
1812
1829
1833
1818
1823
1827
1821
1817
1818
1825
1829
1863
1872
1890
1891
1863
1867
1874
1877
1872
1856
1830
1786
1776
1785
1787
1775
1796
1803
1782
1789
1781
1707
1662
1585
1581
1872
2487
2956
2674
2186
1769
1502
1456
1541
1641
1715
1776
1803
1795
1803
1819
1838
1846
1860
1857
1870
1872
1874
1871
1891
1893
1882
1899
1909
1901
1904
1905
1904
1904
1911
1943
1918
1921
1920
1910
1929
1906
1893
1882
1871
1862
1855
1835
1822
1815
1833
1829
1808
1814
1826
1829
1824
1830
1835
1840
1846
1841
1858
1878
1865
1872
1857
1873
1886
1869
1872
1875
1877
1870
1870
1877
1889
1877
1884
1875
1867
1867
1871
1877
1891
1889
1884
1875
1899
1900
1893
1903
1883
1899
1905
1910
1905
1898
1919
1963
1978
1974
1955
1967
1975
1967
1961
1962
1936
1900
1894
1904
1889
1901
1894
1904
1925
1926
1922
1856
1795
1740
1682
1917
2456
3057
3034
2529
2090
1762
1609
1624
1666
1805
1847
1936
1913
1940
1938
1957
1906
1963
1962
1973
1971
1995
2000
2003
2015
2018
2015
2006
2023
2035
2023
2026
2033
2033
2020
2022
2029
2016
2027
2019
2014
2021
2012
1991
1981
1971
1963
1958
1952
1946
1946
1943
1938
1926
1940
1950
1943
1947
1959
1966
1964
1968
1968
1975
1984
1980
1985
1984
1981
1978
1982
1983
1984
1984
1982
2019
1965
1968
1957
1968
1962
1955
1951
1954
1950
1962
1984
2003
2028
2054
2090
2106
2092
2064
2017
1978
1926
1893
1879
1870
1872
1875
1872
1871
1867
1877
1877
1826
1748
1713
1611
1739
2222
2902
3150
2586
2056
1679
1518
1560
1685
1769
1819
1852
1864
1883
1883
1883
1896
1910
1917
1929
1922
1914
1923
1936
1934
1940
1947
1959
1968
1968
1968
1969
1974
1969
1971
1965
1959
1961
1968
1968
1946
1936
1919
1891
1887
1877
1862
1856
1841
1837
1834
1840
1833
1834
1840
1844
1840
1845
1856
1861
1859
1871
1868
1877
1872
1871
1869
1893
1893
1882
1882
1879
1873
1871
1863
1859
1857
1863
1862
1864
1858
1863
1855
1858
1847
1846
1846
1862
1870
1900
1929
1950
1973
1990
2003
1975
1937
1904
1857
1818
1801
1792
1788
1777
1776
1781
1794
1795
1792
1775
1722
1661
1586
1552
1808
2576
3085
2810
2241
1690
1434
1424
1535
1671
1761
1774
1801
1813
1831
1840
1845
1857
1860
1859
1858
1881
1886
1897
1895
1903
1905
1916
1931
1921
1935
1941
1937
1959
1955
1947
1936
1951
1949
1943
1936
1927
1929
1911
1891
1863
1861
1857
1840
1837
1822
1826
1841
1841
1831
1830
1847
1841
1855
1860
1861
1873
1880
1885
1889
1887
1898
1893
1893
1904
1900
1883
1903
1904
1894
1893
1899
1889
1891
1890
1897
1908
1890
1886
1889
1927
1943
1962
1995
2023
2054
2058
2031
1997
1966
1921
1872
1850
1847
1856
1842
1843
1851
1859
1859
1859
1855
1770
1712
1612
1630
1956
2635
3149
2801
2252
1780
1514
1513
1630
1749
1828
1873
1881
1891
1905
1919
1932
1936
1943
1948
1945
1950
1971
1984
1979
1991
2000
2001
2000
2007
2016
2022
2021
2023
2026
2022
2026
2014
2030
2010
2014
2000
1999
1981
1966
1948
1936
1928
1922
1925
1927
1919
1921
1917
1919
1925
1938
1937
1918
1903
1898
1938
1956
1958
1949
1949
1967
1967
1984
1965
1968
1955
1953
1950
1943
1940
1947
1935
1935
1931
1937
1946
1961
1984
2018
2035
2078
2096
2094
2081
2042
1984
1941
1893
1880
1867
1858
1858
1851
1843
1869
1872
1881
1865
1762
1698
1598
1650
2023
2733
3125
2684
2149
1718
1488
1518
1633
1748
1818
1829
1860
1872
1898
1904
1904
1905
1915
1930
1923
1927
1936
1937
1954
1956
1965
1968
1971
1968
1974
1969
1982
1983
1976
1968
1974
1974
1968
1968
1966
1935
1925
1915
1914
1903
1875
1882
1878
1872
1866
1856
1856
1840
1853
1871
1870
1867
1881
1882
1874
1890
1897
1894
1893
1898
1882
1893
1899
1890
1886
1890
1906
1891
1874
1882
1873
1872
1894
1911
1939
1968
1994
1995
2011
2012
1990
1937
1893
1847
1804
1803
1801
1782
1791
1809
1810
1803
1818
1816
1744
1679
1600
1535
1735
2240
2911
2864
2469
1947
1531
1430
1470
1596
1711
1774
1805
1829
1823
1843
1841
1839
1849
1850
1865
1881
1872
1901
1922
1904
1897
1886
1895
1910
1916
1903
1894
1900
1904
1882
1889
1893
1888
1904
1899
1900
1904
1891
1888
1859
1846
1856
1840
1830
1840
1856
1851
1851
1851
1839
1853
1855
1848
1856
1858
1863
1845
1871
1887
1869
1855
1857
1878
1859
1856
1831
1883
1878
1879
1862
1867
1899
1925
1957
1972
1984
2002
1972
1941
1926
1851
1810
1814
1787
1798
1817
1804
1829
1837
1805
1777
1806
1738
1680
1650
1616
1907
2515
2949
2785
2332
1921
1615
1489
1561
1598
1686
1714
1770
1793
1835
1810
1829
1861
1865
1823
1881
1886
1856
1861
1899
1860
1856
1885
1913
1908
1903
1871
1891
1897
1905
1891
1871
1888
1869
1893
1920
1872
1879
1904
1884
1855
1873
1872
1856
1872
1859
1857
1877
1853
1839
1841
1869
1891
1891
1861
1879
1878
1898
1903
1926
1906
1891
1888
1873
1882
1889
1874
1893
1874
1890
1939
1942
1950
1962
1975
1992
1983
1983
1945
1873
1839
1798
1778
1815
1828
1811
1804
1795
1803
1819
1808
1765
1747
1689
1619
1855
2425
2968
2831
2396
2007
1674
1514
1504
1594
1687
1746
1763
1807
1839
1823
1824
1840
1855
1867
1874
1890
1891
1885
1888
1897
1904
1913
1922
1915
1909
1914
1904
1904
1907
1909
1907
1919
1908
1925
1936
1923
1923
1915
1916
1904
1904
1901
1901
1903
1901
1902
1902
1898
1882
1901
1913
1922
1973
1925
1938
1945
1936
1938
1946
1952
1951
1950
1968
1965
1962
1958
1944
1955
1984
2022
2033
2043
2061
2087
2090
2060
2015
1984
1933
1907
1889
1885
1879
1883
1878
1883
1896
1895
1904
1877
1799
1773
1680
1783
2355
3069
3185
2658
2043
1674
1544
1582
1682
1776
1826
1849
1861
1883
1894
1904
1914
1915
1914
1920
1935
1927
1936
1951
1953
1942
1953
1961
1962
1961
1963
1969
1958
1952
1957
1955
1955
1949
1939
1947
1943
1933
1935
1930
1921
1919
1913
1897
1899
1892
1887
1889
1881
1882
1885
1905
1906
1917
1929
1922
1935
1938
1936
1939
1940
1949
1947
1946
1949
1942
1904
1936
1936
1943
1968
1994
2023
2045
2075
2110
2088
2063
2019
1982
1925
1882
1855
1850
1843
1840
1853
1850
1852
1861
1871
1851
1757
1712
1628
1654
2142
2899
3277
2766
2064
1642
1488
1535
1681
1776
1822
1853
1869
1879
1868
1887
1902
1908
1916
1917
1922
1920
1872
1942
1947
1952
1936
1968
1975
1975
1973
1983
1979
1979
1983
1986
1988
1985
1984
1978
1973
1967
1954
1935
1915
1914
1902
1895
1886
1874
1879
1882
1889
1875
1885
1891
1892
1890
1903
1905
1911
1911
1906
1906
1920
1920
1915
1920
1922
1919
1913
1916
1908
1907
1909
1906
1905
1906
1904
1910
1906
1903
1895
1903
1904
1902
1894
1893
1894
1887
1888
1891
1891
