-4.996679435428587057e-01
-4.996679435428587057e-01
-5.301355010759598585e-01
-5.423225240892002308e-01
-5.788835931289216807e-01
-5.423225240892002308e-01
-5.423225240892002308e-01
-5.727900816223013836e-01
-5.423225240892002308e-01
-5.484160355958205280e-01
-5.788835931289216807e-01
-5.606030586090609003e-01
-5.727900816223013836e-01
-5.727900816223013836e-01
-5.971641276487823502e-01
-5.849771046355418669e-01
-5.666965701156811974e-01
-5.423225240892002308e-01
-5.362290125825800446e-01
-5.118549665560990780e-01
-5.057614550494788919e-01
-4.874809205296182224e-01
-4.509198514898968835e-01
-4.570133629965170696e-01
-4.570133629965170696e-01
-4.631068745031372558e-01
-4.631068745031372558e-01
-4.204522939567957307e-01
-2.742080177979102640e-01
-2.498339717714293529e-01
-1.584312991721258945e-01
-9.140267259930340282e-02
-1.828053451986068334e-02
1.218702301324045556e-02
4.265458054634159446e-02
6.093511506620227780e-02
4.265458054634159446e-02
2.437404602648091112e-02
1.828053451986068334e-02
-2.863950408111506918e-01
-2.437404602648091112e-02
6.093511506620227780e-03
-1.828053451986068334e-02
-4.265458054634158058e-02
-6.093511506620227780e-02
-3.656106903972136668e-02
-6.093511506620227780e-02
-7.312213807944273336e-02
-9.140267259930341670e-02
-8.530916109268317504e-02
-1.035896956125438723e-01
-1.828053451986068334e-02
-5.484160355958205002e-02
-2.437404602648091112e-02
1.828053451986068334e-02
-6.093511506620227780e-03
6.093511506620227780e-03
4.265458054634159446e-02
4.874809205296182224e-02
5.484160355958205002e-02
3.656106903972136668e-02
4.265458054634159446e-02
1.828053451986068334e-02
3.046755753310113890e-02
4.265458054634159446e-02
1.828053451986068334e-02
1.828053451986068334e-02
6.093511506620227780e-02
6.702862657282250558e-02
5.484160355958205002e-02
3.046755753310113890e-02
7.921564958606296114e-02
3.656106903972136668e-02
1.035896956125438723e-01
4.265458054634159168e-01
6.093511506620227780e-03
-1.584312991721259500e-01
3.656106903972136668e-02
2.010858797184675306e-01
3.656106903972136668e-02
9.749618410592364448e-02
5.484160355958205002e-02
3.046755753310113890e-02
3.656106903972136668e-02
-4.265458054634159446e-02
6.093511506620227780e-03
6.093511506620227780e-03
0.000000000000000000e+00
2.924885523177709334e-01
1.218702301324045556e-02
-1.828053451986068334e-02
1.218702301324045556e-02
0.000000000000000000e+00
-5.484160355958205002e-02
-2.437404602648091112e-02
6.093511506620227780e-03
3.046755753310113890e-02
-6.093511506620227780e-03
-1.218702301324045556e-02
3.656106903972136668e-02
1.218702301324045556e-02
-4.265458054634158058e-02
6.093511506620227780e-03
0.000000000000000000e+00
-1.828053451986068334e-02
-3.656106903972136668e-02
-3.656106903972136668e-02
-6.093511506620227780e-03
0.000000000000000000e+00
2.437404602648091112e-02
3.656106903972136668e-02
0.000000000000000000e+00
-1.218702301324044168e-02
0.000000000000000000e+00
-4.874809205296180836e-02
3.046755753310113890e-02
5.484160355958205002e-02
4.874809205296182224e-02
1.462442761588854667e-01
1.340572531456449834e-01
-5.484160355958206390e-02
-2.498339717714293251e-01
-2.132729027317079862e-01
-2.010858797184675306e-01
-1.035896956125438584e-01
-1.706183221853663501e-01
-1.279637416390247973e-01
-5.484160355958206390e-02
7.312213807944273336e-02
1.279637416390247973e-01
1.828053451986069722e-02
-4.874809205296182224e-02
3.046755753310115278e-02
2.437404602648091112e-02
4.265458054634160834e-02
9.749618410592364448e-02
7.312213807944273336e-02
0.000000000000000000e+00
-2.681145062912899668e-01
-5.362290125825800446e-01
-1.431975204055753625e+00
-3.412366443707327335e+00
-3.016288195777012682e+00
-1.584312991721259223e-01
5.002772946935207798e+00
6.099605018126847966e+00
3.972969502316388457e+00
2.224131699916382932e+00
2.803015293045304501e-01
-7.129408462745666641e-01
-8.469980994202117586e-01
-5.362290125825800446e-01
-3.351431328641125695e-01
-2.620209947846697807e-01
-1.888988567052270751e-01
-1.767118336919865917e-01
-2.071793912250877445e-01
-1.218702301324045278e-01
-1.035896956125438584e-01
-1.645248106787461639e-01
-1.401507646522652528e-01
-6.702862657282251946e-02
-1.340572531456450112e-01
-1.645248106787461639e-01
-1.096832071191641000e-01
-1.523377876655056806e-01
-1.645248106787461639e-01
-1.767118336919865917e-01
-1.888988567052270751e-01
-2.620209947846697807e-01
-1.949923682118472612e-01
-2.254599257449484140e-01
-2.620209947846697807e-01
-2.681145062912899668e-01
-2.620209947846697807e-01
-3.656106903972137223e-01
-3.290496213574922724e-01
-2.437404602648090834e-01
-2.437404602648090834e-01
-1.584312991721259223e-01
-6.702862657282251946e-02
0.000000000000000000e+00
0.000000000000000000e+00
3.046755753310113890e-02
8.530916109268318892e-02
9.749618410592364448e-02
8.530916109268318892e-02
7.312213807944273336e-02
3.656106903972136668e-02
4.874809205296182224e-02
1.035896956125438723e-01
9.140267259930341670e-02
3.656106903972136668e-02
3.656106903972136668e-02
2.437404602648091112e-02
0.000000000000000000e+00
-3.046755753310113890e-02
1.828053451986068334e-02
-1.828053451986068334e-02
-3.046755753310113890e-02
6.093511506620227780e-03
-3.046755753310113890e-02
1.828053451986068334e-02
3.656106903972136668e-02
6.093511506620227780e-03
-3.046755753310113890e-02
3.046755753310113890e-02
3.656106903972136668e-02
1.828053451986068334e-02
5.484160355958205002e-02
1.035896956125438723e-01
1.096832071191641000e-01
7.921564958606296114e-02
8.530916109268318892e-02
9.140267259930341670e-02
8.530916109268318892e-02
9.749618410592364448e-02
9.140267259930341670e-02
7.921564958606296114e-02
6.093511506620227780e-02
5.484160355958205002e-02
1.828053451986068334e-02
3.656106903972136668e-02
4.265458054634159446e-02
3.656106903972136668e-02
6.702862657282250558e-02
3.046755753310113890e-02
3.046755753310113890e-02
3.046755753310113890e-02
3.656106903972136668e-02
2.437404602648091112e-02
-6.702862657282250558e-02
-4.265458054634159446e-02
-4.874809205296182224e-02
-4.874809205296182224e-02
-5.484160355958205002e-02
-6.093511506620227780e-02
-4.265458054634159446e-02
2.437404602648091112e-02
6.093511506620227780e-03
-3.046755753310113890e-02
3.656106903972136668e-02
6.093511506620227780e-02
-1.218702301324045556e-02
-1.218702301324045556e-02
3.656106903972136668e-02
0.000000000000000000e+00
6.093511506620227780e-03
6.702862657282250558e-02
4.874809205296182224e-02
-1.218702301324045556e-02
-1.218702301324045556e-02
-1.218702301324045556e-02
-6.093511506620227780e-03
1.218702301324045556e-02
6.093511506620227780e-03
1.828053451986068334e-02
-1.828053451986068334e-02
1.218702301324045556e-02
-1.828053451986068334e-02
0.000000000000000000e+00
6.093511506620227780e-02
-6.093511506620227780e-03
0.000000000000000000e+00
4.265458054634159446e-02
0.000000000000000000e+00
-1.828053451986068334e-02
4.265458054634159446e-02
1.218702301324045556e-02
-3.046755753310113890e-02
-3.046755753310113890e-02
1.218702301324045556e-02
8.530916109268318892e-02
6.093511506620227780e-02
1.888988567052270473e-01
1.035896956125438723e-01
-8.530916109268318892e-02
-3.534236673839732390e-01
-2.559274832780495945e-01
-1.828053451986068612e-01
-1.828053451986068612e-01
-1.645248106787461639e-01
-1.279637416390247973e-01
2.437404602648091112e-02
1.096832071191641000e-01
8.530916109268318892e-02
3.656106903972136668e-02
-1.218702301324045556e-02
0.000000000000000000e+00
1.218702301324045556e-02
4.874809205296182224e-02
4.265458054634159446e-02
0.000000000000000000e+00
4.265458054634159446e-02
-2.254599257449484140e-01
-5.606030586090610113e-01
-1.383227112002791692e+00
-3.412366443707327779e+00
-3.083316822349835284e+00
-2.193664142383281723e-01
4.826061113243220291e+00
5.928986695941481422e+00
4.046091640395831135e+00
2.480059183194432748e+00
4.996679435428587057e-01
-7.555954268209083002e-01
-8.957461914731735808e-01
-6.885668002480858085e-01
-5.057614550494788919e-01
-3.534236673839732390e-01
-2.193664142383281723e-01
-2.254599257449484140e-01
-2.254599257449484140e-01
-2.498339717714293251e-01
-2.132729027317079862e-01
-2.985820638243911196e-01
-2.803015293045304501e-01
-2.742080177979102640e-01
-2.559274832780495945e-01
-2.985820638243911196e-01
-2.437404602648090834e-01
-3.107690868376316029e-01
-3.107690868376316029e-01
-2.863950408111507473e-01
-2.985820638243911196e-01
-3.168625983442517891e-01
-3.534236673839732390e-01
-4.143587824501755446e-01
-4.265458054634159168e-01
-4.570133629965170696e-01
-5.240419895693395613e-01
-5.179484780627193752e-01
-4.692003860097575529e-01
-3.656106903972137223e-01
-3.960782479303148751e-01
-3.107690868376316029e-01
-2.803015293045304501e-01
-1.706183221853663501e-01
-7.312213807944273336e-02
3.656106903972136668e-02
-2.437404602648091112e-01
7.312213807944273336e-02
1.096832071191641000e-01
3.046755753310113890e-02
3.656106903972136668e-02
7.921564958606296114e-02
4.265458054634159446e-02
2.437404602648091112e-02
4.874809205296182224e-02
6.093511506620227780e-03
-6.093511506620227780e-02
6.093511506620227780e-03
-6.093511506620227780e-02
6.093511506620227780e-03
1.218702301324045556e-02
1.218702301324045556e-02
0.000000000000000000e+00
1.035896956125438723e-01
4.265458054634159446e-02
6.093511506620227780e-02
6.093511506620227780e-03
7.312213807944273336e-02
6.093511506620227780e-02
6.093511506620227780e-03
-1.828053451986068334e-02
1.828053451986068334e-02
-3.046755753310113890e-02
-2.437404602648091112e-02
-1.218702301324045556e-02
-8.530916109268317504e-02
-3.656106903972136668e-02
1.218702301324045556e-02
0.000000000000000000e+00
0.000000000000000000e+00
4.265458054634159446e-02
-4.265458054634159446e-02
-7.312213807944271948e-02
-4.265458054634159446e-02
0.000000000000000000e+00
-5.484160355958205002e-02
0.000000000000000000e+00
1.828053451986068334e-02
-3.656106903972136668e-02
-6.093511506620227780e-03
-6.093511506620227780e-03
-5.484160355958205002e-02
-8.530916109268317504e-02
-6.093511506620227780e-03
6.702862657282250558e-02
0.000000000000000000e+00
-1.218702301324045556e-02
-9.749618410592363060e-02
-3.046755753310113890e-02
4.265458054634159446e-02
7.921564958606296114e-02
-6.093511506620227780e-03
3.046755753310113890e-02
7.312213807944273336e-02
-6.093511506620227780e-03
-1.218702301324045556e-02
-7.921564958606294726e-02
-4.265458054634159446e-02
0.000000000000000000e+00
3.656106903972136668e-02
6.093511506620227780e-02
5.484160355958205002e-02
3.046755753310113890e-02
4.265458054634159446e-02
8.530916109268318892e-02
1.828053451986068334e-02
-7.921564958606296114e-02
-4.265458054634159446e-02
4.265458054634159446e-02
4.265458054634159446e-02
-6.093511506620227780e-03
-1.828053451986068334e-02
-6.093511506620227780e-03
4.265458054634159446e-02
1.218702301324045556e-02
6.702862657282250558e-02
1.096832071191641000e-01
9.749618410592364448e-02
9.140267259930341670e-02
1.401507646522652251e-01
8.530916109268318892e-02
7.921564958606296114e-02
1.523377876655057084e-01
2.315534372515686279e-01
1.340572531456450112e-01
-1.645248106787461362e-01
-2.742080177979102085e-01
7.312213807944273336e-02
-6.093511506620227780e-02
1.828053451986068334e-02
0.000000000000000000e+00
0.000000000000000000e+00
0.000000000000000000e+00
6.093511506620227780e-03
9.749618410592364448e-02
1.035896956125438723e-01
9.749618410592364448e-02
1.096832071191641000e-01
9.749618410592364448e-02
1.584312991721259223e-01
1.401507646522652251e-01
9.749618410592364448e-02
-8.530916109268318892e-02
-4.570133629965170696e-01
-7.860629843540093420e-01
-2.711612620446001376e+00
-2.467872160181192154e+00
-2.559274832780495945e-01
4.393421796273183411e+00
6.386000058937998602e+00
5.130736688574232041e+00
3.729229042051579679e+00
1.535564899668297567e+00
-5.057614550494788919e-01
-1.072458025165160089e+00
-1.035896956125438750e+00
-8.043435188738700115e-01
-4.570133629965170696e-01
-4.204522939567957307e-01
-3.656106903972136113e-01
-3.656106903972136113e-01
-3.046755753310114168e-01
-3.656106903972136113e-01
-2.681145062912899668e-01
-1.888988567052270473e-01
-3.046755753310114168e-01
-2.437404602648090834e-01
-1.706183221853663778e-01
-2.376469487581888973e-01
-2.559274832780495945e-01
-2.498339717714293251e-01
-2.681145062912900223e-01
-3.412366443707327557e-01
-2.803015293045304501e-01
-3.412366443707327557e-01
-3.534236673839731835e-01
-3.717042019038338529e-01
-3.838912249170743363e-01
-4.204522939567956752e-01
-4.935744320362384085e-01
-4.448263399832765863e-01
-4.570133629965170696e-01
-3.960782479303147641e-01
-2.985820638243911196e-01
-2.559274832780495390e-01
-1.401507646522652251e-01
0.000000000000000000e+00
0.000000000000000000e+00
0.000000000000000000e+00
0.000000000000000000e+00
0.000000000000000000e+00
0.000000000000000000e+00
0.000000000000000000e+00
6.093511506620186147e-03
4.265458054634152507e-02
5.484160355958200839e-02
4.874809205296182224e-02
0.000000000000000000e+00
-4.265458054634152507e-02
-4.874809205296182224e-02
-6.093511506620219453e-02
0.000000000000000000e+00
0.000000000000000000e+00
6.093511506620297169e-03
1.828053451986066946e-02
-1.218702301324048332e-02
0.000000000000000000e+00
-6.093511506620297169e-03
-6.093511506620186147e-03
8.530916109268316116e-02
1.035896956125439416e-01
8.530916109268327219e-02
2.010858797184674751e-01
1.279637416390247973e-01
0.000000000000000000e+00
-7.312213807944278887e-02
0.000000000000000000e+00
6.702862657282249170e-02
3.656106903972133892e-02
7.312213807944278887e-02
4.874809205296182224e-02
-8.530916109268316116e-02
-7.921564958606297502e-02
-5.484160355958211941e-02
-8.530916109268327219e-02
-2.437404602648096663e-02
4.874809205296182224e-02
-2.437404602648096663e-02
-2.437404602648096663e-02
4.874809205296182224e-02
-2.437404602648096663e-02
-3.046755753310115278e-02
4.265458054634152507e-02
6.702862657282249170e-02
4.874809205296182224e-02
9.749618410592364448e-02
1.401507646522651696e-01
9.749618410592364448e-02
8.530916109268316116e-02
7.921564958606297502e-02
9.749618410592364448e-02
1.584312991721258390e-01
2.193664142383281446e-01
1.340572531456449834e-01
1.218702301324045001e-01
1.584312991721258390e-01
1.888988567052271028e-01
9.749618410592364448e-02
1.401507646522651696e-01
1.523377876655056529e-01
1.340572531456449834e-01
1.949923682118471779e-01
1.888988567052271028e-01
8.530916109268316116e-02
1.401507646522651696e-01
1.340572531456449834e-01
9.140267259930334731e-02
1.584312991721258390e-01
1.767118336919865085e-01
9.140267259930334731e-02
7.921564958606297502e-02
9.140267259930334731e-02
1.401507646522651696e-01
1.462442761588854667e-01
2.132729027317078474e-01
2.010858797184674751e-01
1.035896956125438306e-01
-3.656106903972144995e-02
-1.035896956125439416e-01
-3.656106903972144995e-02
-7.921564958606297502e-02
-6.093511506620219453e-02
-7.921564958606286400e-02
-6.093511506620219453e-02
6.093511506620230556e-02
0.000000000000000000e+00
1.157767186257843139e-01
8.530916109268316116e-02
1.218702301324048332e-02
-1.218702301324048332e-02
1.218702301324037229e-02
6.093511506620297169e-03
0.000000000000000000e+00
0.000000000000000000e+00
-4.265458054634152507e-02
-4.996679435428587057e-01
-7.312213807944273336e-01
-2.376469487581888806e+00
-3.375805374667605996e+00
-1.919456124585371626e+00
3.028475218790253276e+00
7.159876020278767683e+00
5.983828299501063874e+00
3.710948507531719009e+00
1.663528641307322253e+00
-3.046755753310115278e-02
-5.666965701156811974e-01
-5.423225240892002308e-01
-2.803015293045304501e-01
-1.218702301324045556e-01
1.218702301324042780e-02
3.046755753310115278e-02
1.218702301324042780e-02
-1.279637416390247973e-01
4.265458054634158058e-02
4.265458054634158058e-02
6.093511506620225004e-02
1.157767186257843695e-01
3.656106903972139444e-02
6.093511506620230556e-02
6.702862657282254721e-02
0.000000000000000000e+00
1.828053451986072497e-02
0.000000000000000000e+00
-7.921564958606294726e-02
-9.140267259930340282e-02
-1.096832071191640723e-01
-1.706183221853663501e-01
-2.132729027317079584e-01
-2.254599257449483862e-01
0.000000000000000000e+00
-2.681145062912900223e-01
-2.742080177979102640e-01
-2.559274832780495390e-01
-2.498339717714293251e-01
1.767118336919865917e-01
-1.523377876655056806e-01
-4.874809205296182224e-02
2.437404602648091112e-02
9.749618410592367224e-02
1.584312991721259500e-01
1.828053451986068334e-01
2.498339717714293251e-01
2.620209947846697807e-01
2.742080177979102640e-01
3.107690868376316029e-01
2.559274832780495390e-01
2.315534372515686279e-01
2.193664142383282001e-01
1.523377876655057084e-01
5.484160355958203614e-02
1.218702301324045556e-02
-6.093511506620213902e-03
-1.828053451986066946e-02
-3.046755753310113890e-02
-6.093511506620241658e-03
1.828053451986069722e-02
-6.093511506620213902e-03
6.093511506620213902e-03
-1.828053451986068334e-02
-4.874809205296182224e-02
-3.656106903972136668e-02
3.656106903972135280e-02
6.093511506620227780e-03
3.656106903972136668e-02
2.437404602648091112e-02
4.265458054634159446e-02
0.000000000000000000e+00
6.093511506620227780e-03
-1.218702301324045556e-02
0.000000000000000000e+00
0.000000000000000000e+00
-6.093511506620227780e-03
-6.093511506620227780e-02
-2.437404602648091112e-02
-1.218702301324045556e-02
-1.828053451986068334e-02
-4.874809205296182224e-02
1.828053451986068334e-02
-3.046755753310113890e-02
2.437404602648091112e-02
-6.093511506620227780e-03
1.767118336919866195e-01
-2.193664142383281723e-01
-4.265458054634158058e-02
3.046755753310112502e-02
-3.838912249170743918e-01
3.046755753310115278e-02
6.702862657282249170e-02
4.265458054634158058e-02
3.046755753310115278e-02
1.828053451986066946e-02
6.093511506620241658e-03
4.265458054634158058e-02
4.265458054634158058e-02
6.093511506620241658e-03
-6.093511506620241658e-03
0.000000000000000000e+00
0.000000000000000000e+00
-1.218702301324042780e-02
1.218702301324048332e-02
3.656106903972139444e-02
6.093511506620241658e-03
-3.046755753310109727e-02
-1.218702301324042780e-02
-4.874809205296182224e-02
-4.874809205296182224e-02
1.218702301324042780e-02
-6.093511506620241658e-03
-6.093511506620230556e-02
-6.093511506620230556e-02
-3.046755753310115278e-02
-6.093511506620241658e-03
-3.656106903972133892e-02
-6.093511506620230556e-02
-2.437404602648091112e-02
6.093511506620230556e-02
1.096832071191641278e-01
8.530916109268321668e-02
1.157767186257843695e-01
-4.874809205296187775e-02
-1.218702301324045556e-01
-3.656106903972139444e-02
-6.702862657282254721e-02
-1.523377876655056529e-01
-1.401507646522651696e-01
-1.828053451986066946e-02
4.265458054634158058e-02
7.921564958606291951e-02
9.749618410592364448e-02
7.921564958606291951e-02
-3.046755753310115278e-02
-4.874809205296182224e-02
-1.218702301324048332e-02
-7.312213807944267785e-02
5.484160355958206390e-02
1.218702301324048332e-02
-6.702862657282249170e-02
-4.935744320362385196e-01
-7.982500073672498253e-01
-2.833482850578405987e+00
-3.680480949998617302e+00
-2.339908418542167468e+00
3.016288195777012682e+00
6.459122197017441280e+00
5.155110734600713229e+00
3.278309190561682573e+00
9.079332144864139531e-01
-5.971641276487822392e-01
-9.627748180459960725e-01
-8.591851224334521309e-01
-5.910706161421621641e-01
-4.631068745031372558e-01
-3.412366443707327557e-01
-3.351431328641125695e-01
-2.315534372515686279e-01
-2.863950408111507473e-01
-2.863950408111507473e-01
-2.620209947846697807e-01
-2.071793912250877723e-01
-2.376469487581889251e-01
-1.949923682118472890e-01
-1.462442761588854667e-01
-1.949923682118472890e-01
-2.620209947846697807e-01
-2.193664142383281446e-01
-1.828053451986068056e-01
-2.681145062912899668e-01
-2.620209947846697807e-01
-2.559274832780495945e-01
-3.595171788905934251e-01
-2.985820638243911196e-01
-3.656106903972136113e-01
-3.838912249170743918e-01
-4.326393169700362140e-01
-3.107690868376316029e-01
-3.412366443707327557e-01
-2.985820638243911196e-01
-2.010858797184674751e-01
-1.035896956125438306e-01
-7.312213807944267785e-02
6.093511506620225004e-02
9.140267259930340282e-02
7.921564958606297502e-02
1.340572531456449834e-01
1.157767186257843139e-01
1.035896956125438861e-01
1.157767186257843139e-01
6.702862657282249170e-02
4.265458054634163609e-02
2.863950408111507473e-01
0.000000000000000000e+00
-2.437404602648091112e-02
-3.046755753310109727e-02
0.000000000000000000e+00
-4.265458054634158058e-02
-8.530916109268316116e-02
-8.530916109268316116e-02
-4.265458054634158058e-02
-6.093511506620241658e-03
6.093511506620241658e-03
3.046755753310115278e-02
-1.218702301324042780e-02
0.000000000000000000e+00
2.437404602648091112e-02
7.921564958606297502e-02
-6.093511506620241658e-03
3.046755753310115278e-02
-1.218702301324048332e-02
-3.656106903972133892e-02
-2.437404602648091112e-02
-4.265458054634163609e-02
-5.484160355958206390e-02
1.828053451986066946e-02
3.046755753310115278e-02
3.046755753310115278e-02
1.828053451986066946e-02
3.046755753310109727e-02
-1.218702301324048332e-02
-6.093511506620241658e-03
1.828053451986066946e-02
1.218702301324042780e-02
1.828053451986066946e-02
0.000000000000000000e+00
1.828053451986066946e-02
1.828053451986066946e-02
1.828053451986066946e-02
-1.218702301324042780e-02
1.828053451986066946e-02
-3.656106903972133892e-02
-5.484160355958206390e-02
-1.218702301324042780e-02
0.000000000000000000e+00
-1.218702301324042780e-02
-2.437404602648091112e-02
-1.828053451986066946e-02
-6.093511506620241658e-03
-4.874809205296182224e-02
-1.218702301324048332e-02
2.437404602648091112e-02
2.437404602648091112e-02
-2.437404602648091112e-02
1.218702301324042780e-02
1.218702301324048332e-02
-1.218702301324042780e-02
-1.218702301324042780e-02
6.093511506620241658e-03
-1.828053451986066946e-02
-1.828053451986072497e-02
4.265458054634158058e-02
2.437404602648091112e-02
0.000000000000000000e+00
3.656106903972139444e-02
2.437404602648091112e-02
-5.484160355958206390e-02
0.000000000000000000e+00
-3.046755753310115278e-02
-4.265458054634158058e-02
1.218702301324048332e-02
1.828053451986066946e-02
-2.437404602648091112e-02
3.656106903972139444e-02
6.093511506620241658e-03
0.000000000000000000e+00
6.093511506620241658e-03
4.265458054634158058e-02
4.265458054634158058e-02
6.093511506620227780e-02
1.523377876655057084e-01
1.401507646522652528e-01
1.157767186257843417e-01
-1.218702301324042780e-02
-2.376469487581889251e-01
-3.899847364236945779e-01
-3.473301558773529418e-01
-2.437404602648091667e-01
-1.828053451986068612e-01
-1.645248106787461362e-01
-6.093511506620230556e-02
3.656106903972133892e-02
1.462442761588854390e-01
1.949923682118472612e-01
2.071793912250877168e-01
8.530916109268316116e-02
1.462442761588854390e-01
1.279637416390247695e-01
1.706183221853663501e-01
2.010858797184675306e-01
2.132729027317079584e-01
4.874809205296182224e-02
-4.143587824501755446e-01
-7.312213807944273336e-01
-2.687238574419520631e+00
-3.375805374667605996e+00
-2.065700400744256982e+00
3.314870259601403912e+00
6.526150823590263883e+00
5.161204246107332416e+00
3.522049650826491796e+00
1.224795812830665742e+00
-3.351431328641125140e-01
-7.007538232613261808e-01
-5.849771046355418669e-01
-3.717042019038338529e-01
-1.828053451986068056e-01
-7.921564958606291951e-02
-9.749618410592364448e-02
-1.218702301324042780e-02
0.000000000000000000e+00
-1.218702301324042780e-02
3.656106903972139444e-02
4.874809205296182224e-02
6.093511506620241658e-03
1.218702301324045556e-02
3.656106903972136668e-02
6.093511506620241658e-03
-6.093511506620241658e-03
-6.702862657282249170e-02
-3.656106903972133892e-02
-6.702862657282249170e-02
-9.749618410592364448e-02
-1.279637416390247973e-01
-1.462442761588854667e-01
-1.888988567052270473e-01
-2.132729027317079584e-01
-2.132729027317079862e-01
-2.193664142383282001e-01
-2.193664142383282001e-01
-2.132729027317079584e-01
-2.010858797184675306e-01
-9.140267259930340282e-02
-5.484160355958206390e-02
0.000000000000000000e+00
0.000000000000000000e+00
0.000000000000000000e+00
0.000000000000000000e+00
1.828053451986068334e-02
3.046755753310113890e-02
1.828053451986068334e-02
7.312213807944271948e-02
1.767118336919866195e-01
1.340572531456449834e-01
9.140267259930341670e-02
7.312213807944271948e-02
7.312213807944271948e-02
1.218702301324045556e-02
9.140267259930341670e-02
7.312213807944271948e-02
6.093511506620227780e-03
4.265458054634159446e-02
3.656106903972136668e-02
-3.046755753310113890e-02
-2.437404602648091112e-02
6.702862657282249170e-02
6.702862657282249170e-02
3.656106903972136668e-02
6.702862657282249170e-02
9.749618410592364448e-02
1.096832071191641000e-01
1.462442761588854667e-01
6.702862657282250558e-02
7.921564958606296114e-02
1.279637416390247973e-01
1.218702301324045417e-01
6.093511506620226392e-02
6.093511506620226392e-02
7.312213807944271948e-02
5.484160355958205002e-02
2.437404602648091112e-02
2.985820638243911196e-01
1.828053451986068334e-02
6.093511506620227780e-03
3.046755753310113890e-02
0.000000000000000000e+00
-4.874809205296182224e-02
4.265458054634159446e-02
3.046755753310113890e-02
-1.218702301324045556e-02
0.000000000000000000e+00
6.093511506620227780e-03
-3.046755753310113890e-02
-3.656106903972136668e-02
-3.046755753310113890e-02
-7.312213807944273336e-02
2.437404602648091112e-02
6.093511506620227780e-03
-3.046755753310113890e-02
-1.035896956125438723e-01
-7.312213807944273336e-02
-3.656106903972136668e-02
-4.265458054634159446e-02
-3.656106903972136668e-02
-6.093511506620227780e-03
-4.265458054634159446e-02
-7.312213807944273336e-02
3.046755753310113890e-02
2.437404602648091112e-02
-2.376469487581888695e-01
-3.656106903972136668e-02
3.656106903972136668e-02
6.093511506620226392e-02
3.595171788905934251e-01
-2.132729027317079584e-01
0.000000000000000000e+00
6.702862657282249170e-02
6.093511506620227780e-03
0.000000000000000000e+00
3.656106903972136668e-02
6.093511506620227780e-02
7.312213807944273336e-02
2.437404602648091112e-02
6.093511506620227780e-02
-1.828053451986068334e-02
3.656106903972136668e-02
1.218702301324045556e-02
-1.218702301324045556e-02
6.093511506620227780e-03
6.093511506620227780e-02
0.000000000000000000e+00
1.218702301324045556e-02
-1.157767186257843278e-01
-5.057614550494788919e-01
-8.287175649003509781e-01
-6.763797772348452142e-01
-6.215381736752632058e-01
-4.935744320362384085e-01
-4.082652709435552474e-01
-2.254599257449484140e-01
-1.218702301324045556e-01
-3.046755753310113890e-02
1.096832071191641000e-01
1.828053451986068334e-01
1.157767186257843139e-01
1.523377876655056806e-01
1.340572531456450112e-01
1.401507646522652251e-01
1.096832071191640862e-01
1.035896956125438723e-01
6.093511506620227780e-02
-3.717042019038338529e-01
-5.179484780627193752e-01
-2.047419866224396756e+00
-3.418459955213947854e+00
-2.346001930048787987e+00
1.675715664320562626e+00
5.880238603888519933e+00
5.581656540064128258e+00
3.643919880958895963e+00
1.858521009519169542e+00
6.093511506620227780e-03
-6.946603117547059947e-01
-7.434084038076678169e-01
-5.301355010759598585e-01
-4.143587824501754890e-01
-3.229561098508720307e-01
-1.706183221853663778e-01
-1.157767186257843278e-01
-1.279637416390247973e-01
-1.096832071191641000e-01
-9.749618410592364448e-02
-9.749618410592364448e-02
-9.749618410592364448e-02
-1.523377876655057084e-01
-1.949923682118472890e-01
-2.315534372515686279e-01
-2.010858797184675306e-01
-2.193664142383282001e-01
-2.498339717714293529e-01
-2.620209947846697807e-01
-2.742080177979102640e-01
-3.046755753310113612e-01
-3.717042019038338529e-01
-3.229561098508720307e-01
-3.656106903972136668e-01
-3.960782479303147641e-01
-3.351431328641125140e-01
-4.265458054634159168e-01
-4.813874090229979807e-01
-3.899847364236945779e-01
-2.742080177979102640e-01
-2.071793912250877168e-01
-1.157767186257843278e-01
0.000000000000000000e+00
0.000000000000000000e+00
0.000000000000000000e+00
3.046755753310109727e-02
3.656106903972139444e-02
0.000000000000000000e+00
0.000000000000000000e+00
6.093511506620241658e-03
6.093511506620241658e-03
4.265458054634158058e-02
1.035896956125438861e-01
3.046755753310115278e-02
4.265458054634158058e-02
-1.828053451986066946e-02
-2.437404602648091112e-02
-6.093511506620241658e-03
-1.218702301324048332e-02
-5.484160355958206390e-02
-7.921564958606291951e-02
-2.437404602648091112e-02
3.656106903972133892e-02
1.218702301324048332e-02
-4.265458054634158058e-02
6.702862657282254721e-02
8.530916109268321668e-02
0.000000000000000000e+00
3.046755753310115278e-02
4.874809205296182224e-02
5.484160355958206390e-02
1.096832071191640723e-01
6.702862657282254721e-02
-1.218702301324042780e-02
1.096832071191640723e-01
4.874809205296182224e-02
1.218702301324048332e-02
4.874809205296182224e-02
1.828053451986072497e-02
-3.046755753310109727e-02
1.218702301324048332e-02
9.749618410592364448e-02
2.437404602648091112e-02
5.484160355958206390e-02
6.093511506620230556e-02
7.312213807944273336e-02
4.265458054634163609e-02
1.279637416390248528e-01
4.874809205296182224e-02
7.312213807944273336e-02
1.279637416390248528e-01
1.218702301324048332e-02
-1.218702301324042780e-02
3.046755753310115278e-02
-6.093511506620225004e-02
-6.093511506620225004e-02
2.437404602648091112e-02
1.828053451986072497e-02
6.702862657282254721e-02
-6.093511506620225004e-02
-3.656106903972133892e-02
-6.093511506620186147e-03
-1.218702301324042780e-02
1.218702301324048332e-02
1.218702301324048332e-02
-4.874809205296182224e-02
4.265458054634163609e-02
1.645248106787461917e-01
7.312213807944273336e-02
-5.484160355958200839e-02
-6.702862657282249170e-02
3.046755753310115278e-02
6.702862657282254721e-02
9.749618410592364448e-02
-1.828053451986066946e-02
-9.140267259930345833e-02
3.046755753310115278e-02
8.530916109268316116e-02
4.265458054634158058e-02
7.921564958606297502e-02
1.828053451986066946e-02
-1.828053451986066946e-02
3.046755753310115278e-02
-1.401507646522652251e-01
-5.727900816223013836e-01
-8.530916109268318337e-01
-8.226240533937307919e-01
-5.971641276487822392e-01
-4.387328284766564002e-01
-3.351431328641125140e-01
-2.498339717714293251e-01
-1.888988567052270473e-01
-6.093511506620225004e-02
9.749618410592364448e-02
1.218702301324045556e-01
4.265458054634158058e-02
7.921564958606297502e-02
8.530916109268321668e-02
1.523377876655056529e-01
2.376469487581888140e-01
1.279637416390247417e-01
6.093511506620225004e-02
-2.315534372515686834e-01
-4.387328284766564002e-01
-1.992578262664814304e+00
-2.943166057697570004e+00
-1.785398871439726864e+00
2.668958039899659518e+00
6.501776777563782694e+00
5.855864557862038744e+00
4.503105003392348316e+00
2.309440861009066648e+00
2.985820638243911196e-01
-7.434084038076678169e-01
-9.810553525658566310e-01
-7.738759613407688587e-01
-5.545095471024407141e-01
-4.448263399832765863e-01
-3.046755753310113612e-01
-3.351431328641125140e-01
-3.168625983442518446e-01
-2.193664142383282001e-01
-1.949923682118472890e-01
-2.803015293045304501e-01
-2.315534372515686279e-01
-2.315534372515686279e-01
-2.437404602648091112e-01
-2.985820638243911196e-01
-2.681145062912900223e-01
-2.620209947846697807e-01
-3.351431328641125140e-01
-3.290496213574922724e-01
-4.265458054634159168e-01
-4.326393169700361585e-01
-4.204522939567957307e-01
-5.301355010759598585e-01
-5.971641276487823502e-01
-6.398187081951238753e-01
-6.093511506620227225e-01
-6.580992427149846558e-01
-6.702862657282251391e-01
-6.154446621686430197e-01
-5.788835931289216807e-01
-5.057614550494788919e-01
-4.387328284766564002e-01
-3.046755753310113612e-01
-2.742080177979102640e-01
-9.749618410592364448e-02
3.656106903972136668e-02
9.140267259930341670e-02
1.645248106787461362e-01
2.193664142383282001e-01
2.559274832780495945e-01
2.620209947846697807e-01
3.351431328641125140e-01
3.046755753310114168e-01
2.985820638243911196e-01
3.534236673839732390e-01
2.620209947846697807e-01
2.803015293045304501e-01
2.742080177979102640e-01
3.046755753310113612e-01
2.132729027317079584e-01
2.315534372515686279e-01
2.924885523177709334e-01
2.681145062912900223e-01
2.742080177979102640e-01
3.229561098508720862e-01
2.742080177979102640e-01
2.803015293045304501e-01
2.863950408111506918e-01
1.949923682118472890e-01
1.706183221853663778e-01
1.949923682118472890e-01
1.949923682118472890e-01
9.749618410592364448e-02
9.749618410592364448e-02
1.096832071191641000e-01
9.749618410592364448e-02
1.157767186257843278e-01
1.279637416390247973e-01
1.279637416390247973e-01
9.140267259930341670e-02
7.921564958606296114e-02
7.921564958606296114e-02
9.140267259930341670e-02
7.921564958606296114e-02
6.702862657282250558e-02
4.874809205296182224e-02
2.437404602648091112e-02
3.656106903972136668e-02
0.000000000000000000e+00
0.000000000000000000e+00
4.265458054634159446e-02
-1.828053451986068334e-02
0.000000000000000000e+00
0.000000000000000000e+00
0.000000000000000000e+00
-1.218702301324045556e-02
6.093511506620227780e-03
1.828053451986068334e-02
0.000000000000000000e+00
1.218702301324045556e-02
1.218702301324045556e-02
-1.828053451986068334e-02
-3.656106903972136668e-02
-3.046755753310113890e-02
-3.046755753310113890e-02
0.000000000000000000e+00
0.000000000000000000e+00
0.000000000000000000e+00
-1.828053451986068334e-02
2.437404602648091112e-02
-2.437404602648091112e-02
-7.921564958606294726e-02
-3.046755753310112502e-02
4.265458054634159446e-02
-1.828053451986066946e-02
2.437404602648091112e-02
5.484160355958205002e-02
-1.584312991721259500e-01
-4.631068745031373668e-01
-7.434084038076678169e-01
-7.921564958606296392e-01
-6.580992427149846558e-01
-5.849771046355418669e-01
-4.935744320362384085e-01
-3.229561098508720862e-01
-2.132729027317079862e-01
-7.312213807944273336e-02
3.046755753310112502e-02
9.749618410592363060e-02
1.340572531456449834e-01
1.279637416390247695e-01
1.523377876655057084e-01
2.376469487581888973e-01
2.863950408111506918e-01
2.559274832780495945e-01
2.559274832780495945e-01
-1.584312991721259500e-01
-3.777977134104540946e-01
-1.742744290893385006e+00
-3.253935144535201385e+00
-2.388656510595129401e+00
1.468536273095474964e+00
6.270223340312213622e+00
6.245849294285733322e+00
3.814538203144262507e+00
1.919456124585371626e+00
1.218702301324042780e-02
-7.677824498341487836e-01
-7.129408462745665531e-01
-4.570133629965170696e-01
-3.107690868376316029e-01
-1.888988567052271028e-01
-1.462442761588854667e-01
-1.523377876655056529e-01
-9.140267259930340282e-02
-1.157767186257843139e-01
-1.767118336919866195e-01
-1.523377876655056529e-01
-9.140267259930340282e-02
-1.279637416390247973e-01
-1.767118336919866195e-01
-1.949923682118472890e-01
-2.193664142383282556e-01
-2.132729027317079584e-01
-2.010858797184674751e-01
-2.620209947846697807e-01
-3.595171788905934251e-01
-3.717042019038339085e-01
-4.143587824501755446e-01
-4.448263399832765863e-01
-4.692003860097575529e-01
-4.752938975163777391e-01
-5.179484780627193752e-01
-5.118549665560991890e-01
-4.874809205296182224e-01
-4.752938975163777391e-01
-4.631068745031373668e-01
-3.595171788905934251e-01
-2.803015293045304501e-01
-2.132729027317079584e-01
-1.828053451986066946e-02
-6.093511506620241658e-03
1.828053451986066946e-02
1.035896956125438861e-01
1.218702301324045556e-01
1.279637416390247695e-01
7.921564958606297502e-02
1.096832071191640723e-01
1.035896956125438861e-01
7.921564958606297502e-02
6.702862657282249170e-02
0.000000000000000000e+00
-2.437404602648091112e-02
0.000000000000000000e+00
-3.656106903972133892e-02
-9.749618410592364448e-02
-4.265458054634158058e-02
-9.140267259930340282e-02
-6.093511506620225004e-02
-6.093511506620225004e-02
-6.093511506620241658e-03
-1.218702301324042780e-02
0.000000000000000000e+00
2.437404602648091112e-02
-1.828053451986066946e-02
-2.437404602648091112e-02
6.093511506620241658e-03
1.218702301324048332e-02
1.218702301324048332e-02
4.874809205296182224e-02
3.046755753310115278e-02
0.000000000000000000e+00
-1.218702301324048332e-02
2.437404602648091112e-02
4.265458054634158058e-02
6.702862657282249170e-02
7.921564958606291951e-02
1.828053451986066946e-02
-1.828053451986072497e-02
1.218702301324042780e-02
-1.828053451986072497e-02
-2.437404602648091112e-02
-6.093511506620241658e-03
-1.218702301324048332e-02
-4.874809205296182224e-02
-1.218702301324042780e-02
6.093511506620230556e-02
1.828053451986072497e-02
-3.656106903972133892e-02
7.312213807944273336e-02
1.828053451986072497e-02
1.218702301324048332e-02
3.046755753310115278e-02
3.046755753310115278e-02
-1.828053451986066946e-02
-1.828053451986066946e-02
1.828053451986066946e-02
1.828053451986066946e-02
-1.828053451986066946e-02
-1.828053451986066946e-02
0.000000000000000000e+00
3.656106903972133892e-02
6.093511506620241658e-03
-2.437404602648091112e-02
-3.046755753310115278e-02
1.828053451986066946e-02
-1.218702301324048332e-02
-3.046755753310115278e-02
-1.828053451986066946e-02
4.874809205296182224e-02
4.874809205296182224e-02
3.046755753310109727e-02
5.484160355958200839e-02
5.484160355958200839e-02
9.749618410592361673e-02
-3.046755753310115278e-02
-4.448263399832765863e-01
-7.982500073672499363e-01
-7.129408462745666641e-01
-5.545095471024407141e-01
-4.509198514898968835e-01
-3.107690868376316029e-01
-1.888988567052270473e-01
-7.312213807944273336e-02
5.484160355958206390e-02
1.218702301324045556e-01
1.767118336919865917e-01
1.645248106787461362e-01
2.071793912250877168e-01
2.132729027317079584e-01
2.985820638243911196e-01
2.742080177979102640e-01
2.742080177979102640e-01
1.949923682118472612e-01
-1.767118336919865640e-01
-3.960782479303148196e-01
-2.090074446770738170e+00
-3.485488581786770013e+00
-2.754267200992342790e+00
8.835591684599330975e-01
6.367719524418137489e+00
5.947267230461342535e+00
3.887660341223705185e+00
2.096167958277358245e+00
-2.437404602648091112e-02
-6.885668002480858085e-01
-5.971641276487822392e-01
-3.107690868376316584e-01
-9.140267259930340282e-02
-3.046755753310115278e-02
-6.093511506620213902e-03
3.046755753310115278e-02
-3.046755753310115278e-02
3.656106903972136668e-02
1.218702301324045417e-01
7.312213807944273336e-02
0.000000000000000000e+00
6.093511506620227780e-02
4.874809205296182224e-02
-2.437404602648091112e-02
3.046755753310112502e-02
6.702862657282249170e-02
-6.093511506620241658e-03
-4.874809205296182224e-02
-1.035896956125438861e-01
-1.340572531456450389e-01
-1.645248106787461362e-01
-2.010858797184675029e-01
-2.437404602648090834e-01
-2.254599257449484140e-01
-2.498339717714293251e-01
-2.620209947846697807e-01
-2.620209947846697807e-01
-1.828053451986068334e-01
-1.888988567052270473e-01
-8.530916109268318892e-02
0.000000000000000000e+00
0.000000000000000000e+00
0.000000000000000000e+00
0.000000000000000000e+00
9.140267259930340282e-02
7.312213807944273336e-02
7.921564958606294726e-02
4.265458054634159446e-02
4.265458054634159446e-02
5.484160355958205002e-02
5.484160355958203614e-02
1.218702301324045556e-02
-5.484160355958205002e-02
-4.265458054634159446e-02
0.000000000000000000e+00
0.000000000000000000e+00
1.218702301324044168e-02
1.218702301324045556e-02
-6.702862657282249170e-02
-5.484160355958205002e-02
-3.046755753310113890e-02
-7.312213807944273336e-02
-8.530916109268318892e-02
-5.484160355958203614e-02
1.218702301324045556e-02
-1.218702301324045556e-02
6.093511506620241658e-03
3.046755753310115278e-02
2.437404602648091112e-02
6.093511506620227780e-02
2.437404602648091112e-02
0.000000000000000000e+00
0.000000000000000000e+00
-6.093511506620241658e-03
-6.093511506620213902e-03
0.000000000000000000e+00
1.828053451986069722e-02
3.046755753310115278e-02
5.484160355958206390e-02
5.484160355958206390e-02
-4.265458054634158058e-02
-1.218702301324045556e-02
1.218702301324045556e-02
1.218702301324045556e-02
-2.437404602648091112e-02
-1.218702301324045556e-02
7.312213807944273336e-02
0.000000000000000000e+00
-3.046755753310115278e-02
1.218702301324045556e-02
6.093511506620213902e-03
6.093511506620213902e-03
0.000000000000000000e+00
1.218702301324045556e-02
3.046755753310112502e-02
0.000000000000000000e+00
6.093511506620213902e-03
-2.437404602648091112e-02
-3.046755753310115278e-02
-2.437404602648091112e-02
-1.828053451986069722e-02
1.218702301324045556e-02
6.093511506620213902e-03
-2.437404602648091112e-02
-1.828053451986069722e-02
-1.828053451986069722e-02
-3.656106903972136668e-02
-6.093511506620241658e-03
6.702862657282249170e-02
6.093511506620213902e-03
3.046755753310112502e-02
2.437404602648091112e-02
5.484160355958203614e-02
4.265458054634158058e-02
1.035896956125438861e-01
1.584312991721258945e-01
-3.046755753310115278e-02
-3.351431328641125140e-01
-6.580992427149845447e-01
-7.495019153142881141e-01
-5.788835931289215697e-01
-4.448263399832766418e-01
-3.838912249170743363e-01
-3.290496213574922724e-01
-1.279637416390247973e-01
6.093511506620213902e-03
1.035896956125438861e-01
2.010858797184675306e-01
2.559274832780495390e-01
2.437404602648091112e-01
1.949923682118472890e-01
2.498339717714293529e-01
2.559274832780495390e-01
2.498339717714293529e-01
2.559274832780495390e-01
7.921564958606294726e-02
-3.960782479303147641e-01
-9.201202374996544364e-01
-2.955353080710810598e+00
-3.363618351654365846e+00
-9.688683295526161476e-01
4.289832100660640357e+00
6.775984795361693180e+00
4.838248136256461329e+00
2.894417965644608071e+00
8.409045879135914614e-01
-4.874809205296182224e-01
-7.251278692878071475e-01
-4.874809205296182224e-01
-2.863950408111506918e-01
-1.462442761588854667e-01
-5.484160355958205002e-02
-4.265458054634160834e-02
-3.046755753310112502e-02
-3.656106903972136668e-02
-3.656106903972136668e-02
-1.828053451986066946e-02
6.093511506620241658e-03
-4.265458054634158058e-02
-3.046755753310112502e-02
-3.046755753310112502e-02
-4.265458054634158058e-02
-1.096832071191640862e-01
-6.702862657282249170e-02
-1.279637416390247695e-01
-1.584312991721258945e-01
-2.863950408111506918e-01
-1.645248106787461362e-01
-2.132729027317079584e-01
-2.498339717714293251e-01
-2.863950408111506918e-01
-3.412366443707327557e-01
-4.387328284766564002e-01
-3.717042019038339085e-01
-3.351431328641125140e-01
-3.168625983442517891e-01
-2.315534372515686279e-01
-1.706183221853663778e-01
-1.096832071191640862e-01
0.000000000000000000e+00
9.749618410592367224e-02
1.340572531456450112e-01
1.949923682118473167e-01
1.767118336919865917e-01
2.315534372515686556e-01
2.559274832780495945e-01
2.742080177979102640e-01
2.681145062912899668e-01
2.437404602648090834e-01
2.376469487581888973e-01
2.193664142383282001e-01
2.193664142383282001e-01
1.767118336919866195e-01
1.523377876655057084e-01
7.312213807944273336e-02
9.749618410592364448e-02
1.279637416390247973e-01
1.096832071191640723e-01
1.584312991721258945e-01
1.888988567052270473e-01
2.193664142383282001e-01
2.010858797184675306e-01
2.254599257449484417e-01
1.888988567052270473e-01
1.218702301324045556e-01
1.523377876655057084e-01
1.462442761588854667e-01
1.767118336919866195e-01
1.828053451986068056e-01
1.888988567052270473e-01
1.218702301324045556e-01
1.157767186257843139e-01
1.645248106787461362e-01
1.340572531456449834e-01
1.279637416390247973e-01
1.218702301324045556e-01
4.265458054634158058e-02
1.218702301324045556e-02
8.530916109268318892e-02
6.702862657282249170e-02
3.656106903972136668e-02
4.874809205296182224e-02
6.093511506620227780e-02
0.000000000000000000e+00
6.093511506620227780e-02
1.035896956125438584e-01
3.046755753310112502e-02
0.000000000000000000e+00
-3.046755753310112502e-02
-7.921564958606294726e-02
-7.921564958606294726e-02
3.046755753310112502e-02
1.828053451986066946e-02
0.000000000000000000e+00
4.265458054634158058e-02
-3.656106903972136668e-02
-1.828053451986068334e-02
5.484160355958205002e-02
3.046755753310113890e-02
3.046755753310113890e-02
2.437404602648091112e-02
-1.828053451986068334e-02
-7.921564958606296114e-02
-3.046755753310113890e-02
0.000000000000000000e+00
2.437404602648091112e-02
-1.218702301324045556e-02
1.828053451986068334e-02
0.000000000000000000e+00
-5.484160355958205002e-02
-6.702862657282250558e-02
0.000000000000000000e+00
1.218702301324045556e-02
3.656106903972136668e-02
1.828053451986068334e-02
-6.093511506620227780e-03
-1.706183221853663778e-01
-4.509198514898968280e-01
-8.652786339400723170e-01
-8.713721454466926142e-01
-7.373148923010475198e-01
-5.301355010759598585e-01
-4.326393169700361585e-01
-4.143587824501754890e-01
-2.193664142383282001e-01
-9.749618410592363060e-02
3.046755753310113890e-02
7.921564958606296114e-02
7.312213807944273336e-02
6.093511506620227780e-02
1.584312991721259223e-01
1.645248106787461362e-01
9.749618410592363060e-02
1.279637416390247695e-01
1.096832071191640862e-01
-1.523377876655056806e-01
-4.204522939567957307e-01
-1.346666042963070353e+00
-3.144251937416037368e+00
-2.937072546190949929e+00
1.949923682118472890e-01
4.972305389402105646e+00
5.996015322514304025e+00
4.375141261753323185e+00
2.662864528393039887e+00
5.849771046355418669e-01
-6.946603117547058837e-01
-9.871488640724770391e-01
-7.312213807944274446e-01
-4.326393169700361585e-01
-3.046755753310114168e-01
-2.620209947846697807e-01
-2.863950408111506918e-01
-2.863950408111506918e-01
-2.985820638243911751e-01
-2.376469487581888695e-01
-2.254599257449484417e-01
-2.437404602648091112e-01
-2.437404602648091112e-01
-2.924885523177709334e-01
-3.046755753310113612e-01
-3.046755753310114168e-01
-2.863950408111507473e-01
-3.534236673839732390e-01
-3.899847364236945779e-01
-3.534236673839732390e-01
-4.509198514898968835e-01
-4.570133629965170696e-01
-4.265458054634159168e-01
-4.874809205296182224e-01
-5.362290125825800446e-01
-5.484160355958205280e-01
-5.484160355958205280e-01
-6.398187081951238753e-01
-5.545095471024408251e-01
-5.301355010759598585e-01
-4.021717594369350612e-01
-3.656106903972136113e-01
-2.498339717714293251e-01
-2.315534372515686556e-01
2.498339717714293529e-01
0.000000000000000000e+00
1.828053451986068334e-01
1.523377876655057084e-01
1.401507646522652251e-01
9.749618410592364448e-02
1.401507646522652251e-01
1.523377876655057084e-01
1.767118336919866195e-01
1.706183221853663778e-01
1.401507646522652251e-01
5.484160355958203614e-02
-6.093511506620241658e-03
1.218702301324045556e-02
5.484160355958206390e-02
8.530916109268318892e-02
-1.828053451986066946e-02
1.218702301324045556e-02
9.140267259930340282e-02
4.874809205296182224e-02
3.656106903972136668e-02
1.340572531456449834e-01
1.340572531456449834e-01
5.484160355958203614e-02
5.484160355958203614e-02
7.312213807944271948e-02
1.035896956125438584e-01
5.484160355958203614e-02
-2.437404602648091112e-02
-4.874809205296182224e-02
6.093511506620227780e-02
1.279637416390247973e-01
4.874809205296182224e-02
-2.437404602648091112e-02
-4.874809205296182224e-02
-6.093511506620213902e-03
0.000000000000000000e+00
-2.437404602648091112e-02
-6.093511506620213902e-03
-6.093511506620213902e-03
-3.656106903972136668e-02
-3.046755753310112502e-02
-6.702862657282251946e-02
-1.828053451986066946e-02
3.656106903972136668e-02
-6.093511506620227780e-02
-2.437404602648091112e-02
-1.218702301324045556e-02
-8.530916109268321668e-02
-9.749618410592367224e-02
-1.035896956125438584e-01
-7.921564958606297502e-02
-1.828053451986069722e-02
-5.484160355958206390e-02
-1.828053451986069722e-02
-7.921564958606297502e-02
-7.921564958606297502e-02
1.218702301324045556e-02
-5.484160355958203614e-02
-4.874809205296182224e-02
-6.093511506620213902e-03
-6.093511506620213902e-03
1.218702301324045556e-02
3.656106903972136668e-02
5.484160355958206390e-02
1.828053451986069722e-02
6.093511506620227780e-02
4.265458054634160834e-02
6.093511506620227780e-02
1.035896956125438723e-01
8.530916109268318892e-02
3.656106903972136668e-02
1.340572531456449834e-01
1.340572531456449834e-01
-1.523377876655057084e-01
-5.545095471024408251e-01
-6.824732887414655114e-01
-5.666965701156811974e-01
-4.570133629965171251e-01
-2.863950408111506918e-01
-2.559274832780495945e-01
-1.828053451986068612e-01
3.656106903972136668e-02
1.888988567052270473e-01
2.071793912250877445e-01
1.401507646522652251e-01
2.498339717714293529e-01
2.437404602648091112e-01
2.071793912250877445e-01
2.254599257449484417e-01
2.071793912250877445e-01
2.437404602648091112e-01
9.749618410592364448e-02
-2.924885523177709334e-01
-6.459122197017441724e-01
-2.492246206207673342e+00
-2.870043919618127326e+00
-1.096832071191641056e+00
3.582984765892693879e+00
6.574898915643226260e+00
5.094175619534510702e+00
3.656106903972136557e+00
1.693996198840423295e+00
-1.828053451986068334e-01
-8.835591684599330975e-01
-8.409045879135914614e-01
-5.118549665560991890e-01
-3.595171788905934251e-01
-2.620209947846697807e-01
-1.645248106787461639e-01
-1.767118336919866195e-01
-1.706183221853663778e-01
-2.010858797184675306e-01
-2.071793912250877445e-01
-1.584312991721259223e-01
-1.523377876655056806e-01
-1.584312991721259223e-01
-1.767118336919865917e-01
-1.340572531456450112e-01
-1.888988567052270751e-01
-2.620209947846697807e-01
-2.681145062912900778e-01
-2.315534372515686556e-01
-3.229561098508720862e-01
-3.534236673839732390e-01
-3.960782479303148751e-01
-4.996679435428587057e-01
-5.545095471024407141e-01
-5.788835931289216807e-01
-6.154446621686430197e-01
-6.276316851818835030e-01
-5.849771046355418669e-01
-5.057614550494788919e-01
-4.874809205296182224e-01
-3.838912249170743918e-01
-2.924885523177709334e-01
-2.132729027317079862e-01
-9.749618410592367224e-02
-6.093511506620241658e-03
9.749618410592363060e-02
6.702862657282250558e-02
8.530916109268318892e-02
6.093511506620227780e-03
1.218702301324045556e-02
7.921564958606294726e-02
0.000000000000000000e+00
4.874809205296182224e-02
2.437404602648091112e-02
4.265458054634159446e-02
-2.498339717714293251e-01
4.874809205296182224e-02
4.265458054634159446e-02
0.000000000000000000e+00
7.921564958606294726e-02
7.921564958606294726e-02
7.312213807944273336e-02
7.312213807944273336e-02
1.218702301324045556e-01
1.096832071191641000e-01
9.749618410592364448e-02
-1.706183221853663778e-01
1.706183221853663778e-01
2.071793912250877445e-01
1.157767186257843139e-01
7.921564958606294726e-02
7.921564958606294726e-02
1.157767186257843139e-01
1.157767186257843139e-01
8.530916109268318892e-02
7.921564958606294726e-02
9.140267259930340282e-02
4.265458054634159446e-02
7.921564958606294726e-02
7.921564958606294726e-02
7.312213807944273336e-02
5.484160355958205002e-02
7.312213807944273336e-02
7.921564958606294726e-02
7.312213807944273336e-02
7.921564958606294726e-02
7.921564958606294726e-02
-2.437404602648091112e-02
-1.828053451986068334e-02
7.921564958606294726e-02
1.218702301324045556e-02
3.656106903972136668e-02
1.828053451986068334e-02
-1.218702301324045556e-02
-3.656106903972136668e-02
-1.828053451986068334e-02
4.265458054634159446e-02
-6.093511506620227780e-03
0.000000000000000000e+00
3.046755753310113890e-02
1.218702301324045556e-02
5.484160355958205002e-02
3.046755753310113890e-02
-6.702862657282250558e-02
-3.656106903972136668e-02
-3.046755753310113890e-02
-9.749618410592364448e-02
-7.312213807944273336e-02
3.656106903972136668e-02
3.046755753310113890e-02
-2.437404602648091112e-02
-1.218702301324045556e-02
4.265458054634159446e-02
3.656106903972136668e-02
3.046755753310113890e-02
4.265458054634159446e-02
-5.484160355958205002e-02
-3.473301558773529973e-01
-7.068473347679463670e-01
-7.373148923010475198e-01
-6.154446621686429086e-01
-5.301355010759597475e-01
-4.082652709435552474e-01
-3.534236673839732390e-01
-1.401507646522652251e-01
0.000000000000000000e+00
9.140267259930341670e-02
2.376469487581888695e-01
2.010858797184675306e-01
1.645248106787461362e-01
1.462442761588854667e-01
2.071793912250877168e-01
1.523377876655057084e-01
1.462442761588854667e-01
2.193664142383282001e-01
-7.921564958606296114e-02
-4.509198514898968835e-01
-1.109019094204881428e+00
-3.375805374667606440e+00
-3.345337817134505176e+00
-7.495019153142880031e-01
4.576227141471790993e+00
6.434748150990960092e+00
4.369047750246703110e+00
2.601929413326836915e+00
5.240419895693396724e-01
-7.007538232613261808e-01
-7.555954268209081892e-01
-5.057614550494788919e-01
-2.863950408111506918e-01
-9.140267259930341670e-02
6.093511506620227780e-03
-6.093511506620227780e-02
-3.046755753310113890e-02
-1.828053451986068334e-02
-4.265458054634159446e-02
0.000000000000000000e+00
-6.702862657282250558e-02
-9.140267259930341670e-02
-7.921564958606296114e-02
-6.702862657282250558e-02
-9.140267259930341670e-02
-1.401507646522652251e-01
-1.401507646522652251e-01
-1.584312991721258945e-01
7.921564958606296114e-02
-2.132729027317079584e-01
-2.559274832780495945e-01
-2.924885523177709334e-01
-3.412366443707327557e-01
-3.534236673839732390e-01
-3.595171788905934251e-01
-3.534236673839732390e-01
-3.229561098508720862e-01
-3.412366443707327557e-01
-2.742080177979102640e-01
-2.132729027317079584e-01
-9.140267259930341670e-02
-1.157767186257843278e-01
-4.874809205296182224e-02
-2.437404602648091112e-02
4.265458054634159446e-02
8.530916109268317504e-02
6.093511506620226392e-02
1.218702301324045556e-01
1.157767186257843139e-01
1.279637416390247695e-01
1.096832071191641000e-01
6.093511506620227780e-02
4.874809205296182224e-02
3.656106903972136668e-02
1.828053451986068334e-02
5.484160355958203614e-02
1.828053451986068334e-02
-6.093511506620227780e-03
1.218702301324045556e-02
1.828053451986068334e-02
-6.093511506620227780e-03
-6.093511506620227780e-03
0.000000000000000000e+00
3.656106903972136668e-02
-1.218702301324045556e-02
4.265458054634158058e-02
2.437404602648091112e-02
-2.437404602648091112e-02
2.437404602648091112e-02
-2.437404602648091112e-02
-6.093511506620227780e-03
5.484160355958203614e-02
5.484160355958203614e-02
4.265458054634158058e-02
0.000000000000000000e+00
0.000000000000000000e+00
-2.437404602648091112e-02
-2.437404602648091112e-02
3.656106903972136668e-02
0.000000000000000000e+00
-6.093511506620227780e-03
3.656106903972136668e-02
0.000000000000000000e+00
-4.265458054634159446e-02
-6.093511506620227780e-03
4.265458054634158058e-02
-3.046755753310113890e-02
-6.093511506620227780e-03
6.093511506620227780e-02
-6.093511506620227780e-03
-6.093511506620227780e-03
3.656106903972136668e-02
-3.046755753310113890e-02
-4.265458054634159446e-02
0.000000000000000000e+00
1.828053451986068334e-02
-4.265458054634159446e-02
2.437404602648091112e-02
5.484160355958203614e-02
1.218702301324045556e-02
1.828053451986068334e-02
6.702862657282249170e-02
5.484160355958203614e-02
2.437404602648091112e-02
0.000000000000000000e+00
-2.437404602648091112e-02
4.874809205296182224e-02
0.000000000000000000e+00
-2.437404602648091112e-02
-2.437404602648091112e-02
-6.093511506620227780e-03
-6.093511506620227780e-03
-5.484160355958205002e-02
5.484160355958203614e-02
-6.093511506620227780e-03
-6.093511506620227780e-03
2.437404602648091112e-02
7.312213807944273336e-02
1.096832071191641000e-01
7.312213807944273336e-02
-1.401507646522652251e-01
-5.971641276487822392e-01
-8.226240533937306809e-01
-6.093511506620227225e-01
-5.240419895693395613e-01
-4.631068745031372558e-01
-3.960782479303147641e-01
-1.462442761588854667e-01
-4.265458054634159446e-02
7.312213807944273336e-02
1.645248106787461639e-01
1.767118336919866195e-01
1.523377876655057084e-01
1.949923682118472890e-01
2.254599257449484140e-01
2.071793912250877445e-01
2.254599257449484140e-01
2.437404602648091390e-01
1.949923682118473167e-01
-1.888988567052270473e-01
-3.838912249170742808e-01
-2.035232843211156162e+00
-3.455021024253669193e+00
-2.723799643459241526e+00
9.688683295526161476e-01
6.392093570444618678e+00
5.959454253474582686e+00
3.936408433276667118e+00
2.096167958277358245e+00
-3.046755753310115278e-02
-6.885668002480858085e-01
-6.641927542216048419e-01
-3.777977134104540946e-01
-1.462442761588854667e-01
-7.921564958606296114e-02
-1.218702301324045556e-02
7.312213807944273336e-02
3.656106903972136668e-02
2.437404602648091112e-02
4.265458054634160834e-02
3.046755753310115278e-02
6.093511506620227780e-02
1.096832071191641278e-01
3.046755753310115278e-02
1.828053451986069722e-02
0.000000000000000000e+00
-6.093511506620213902e-03
-4.265458054634158058e-02
-2.437404602648091112e-02
-3.656106903972136668e-02
-9.749618410592364448e-02
-1.218702301324045556e-01
-1.340572531456450112e-01
-2.193664142383282001e-01
-2.437404602648091112e-01
-1.888988567052270473e-01
-2.010858797184675306e-01
-1.949923682118472890e-01
-1.462442761588854667e-01
-8.530916109268318892e-02
-1.340572531456450112e-01
0.000000000000000000e+00
3.046755753310115278e-02
1.096832071191641278e-01
0.000000000000000000e+00
1.401507646522652251e-01
2.437404602648085561e-02
0.000000000000000000e+00
-3.046755753310113612e-01
5.484160355958211941e-02
2.315534372515687389e-01
1.828053451986078048e-02
1.828053451986066946e-02
0.000000000000000000e+00
-3.656106903972144995e-02
6.093511506620186147e-03
-1.218702301324048332e-02
-6.093511506620186147e-03
0.000000000000000000e+00
-2.437404602648096663e-02
-9.140267259930345833e-02
-3.046755753310115278e-02
6.093511506620186147e-03
0.000000000000000000e+00
6.702862657282249170e-02
0.000000000000000000e+00
0.000000000000000000e+00
1.096832071191640168e-01
1.340572531456449834e-01
1.157767186257843139e-01
1.279637416390247973e-01
1.706183221853663223e-01
1.949923682118472890e-01
2.254599257449483307e-01
1.828053451986068056e-01
1.949923682118472890e-01
1.462442761588854667e-01
2.254599257449483307e-01
2.681145062912899668e-01
2.193664142383282556e-01
1.949923682118472890e-01
2.010858797184674751e-01
1.828053451986068056e-01
1.949923682118472890e-01
2.376469487581889251e-01
2.681145062912899668e-01
2.132729027317079584e-01
2.132729027317079584e-01
2.315534372515686279e-01
1.949923682118472890e-01
2.681145062912899668e-01
1.888988567052269918e-01
1.949923682118472890e-01
2.863950408111506363e-01
2.498339717714292973e-01
2.010858797184674751e-01
1.888988567052269918e-01
1.462442761588854667e-01
1.279637416390247973e-01
2.132729027317079584e-01
2.193664142383282556e-01
2.315534372515686279e-01
2.132729027317079584e-01
2.254599257449483307e-01
1.828053451986068056e-01
1.279637416390247973e-01
1.279637416390247973e-01
-6.093511506620297169e-03
-1.218702301324048332e-02
9.140267259930345833e-02
1.035896956125438306e-01
-1.828053451986066946e-02
-3.656106903972133892e-02
1.828053451986066946e-02
0.000000000000000000e+00
2.437404602648096663e-02
0.000000000000000000e+00
-2.437404602648096663e-02
0.000000000000000000e+00
1.218702301324037229e-02
2.437404602648096663e-02
-3.656106903972133892e-02
3.656106903972133892e-02
0.000000000000000000e+00
-2.437404602648096663e-02
0.000000000000000000e+00
0.000000000000000000e+00
-3.046755753310104176e-02
5.484160355958200839e-02
-9.749618410592369999e-02
-4.692003860097575529e-01
-7.799694728473891558e-01
-6.276316851818835030e-01
-5.423225240892002308e-01
-4.570133629965170696e-01
-3.168625983442518446e-01
-2.254599257449484417e-01
0.000000000000000000e+00
9.140267259930340282e-02
1.888988567052271028e-01
1.888988567052271028e-01
1.828053451986068056e-01
1.279637416390247973e-01
-1.706183221853663778e-01
0.000000000000000000e+00
-1.340572531456450112e-01
2.498339717714293529e-01
2.254599257449484417e-01
-3.656106903972136668e-02
-3.534236673839732390e-01
-9.749618410592364448e-01
-3.144251937416037368e+00
-2.961446592217430673e+00
2.924885523177709334e-01
5.459786309931724091e+00
6.513963800577023733e+00
4.497011491885727352e+00
2.614116436340077509e+00
6.459122197017441724e-01
-4.448263399832765863e-01
-5.910706161421621641e-01
-3.046755753310113057e-01
-9.749618410592361673e-02
1.828053451986066946e-02
1.279637416390247695e-01
1.645248106787461362e-01
1.523377876655056806e-01
9.749618410592361673e-02
1.279637416390247695e-01
1.462442761588854390e-01
1.035896956125438584e-01
8.530916109268321668e-02
1.828053451986072497e-02
-2.437404602648091112e-02
4.265458054634163609e-02
0.000000000000000000e+00
-7.921564958606291951e-02
-1.340572531456449834e-01
-1.157767186257843139e-01
-3.168625983442519001e-01
-3.107690868376316029e-01
-2.803015293045304501e-01
-3.229561098508720862e-01
-3.899847364236945779e-01
-3.777977134104540946e-01
-4.509198514898968835e-01
-4.021717594369350612e-01
-3.351431328641124585e-01
-2.985820638243912306e-01
-2.803015293045304501e-01
-1.949923682118472890e-01
-1.279637416390247973e-01
-1.035896956125438861e-01
-6.093511506620241658e-03
9.749618410592364448e-02
2.315534372515686556e-01
1.949923682118472890e-01
2.863950408111507473e-01
2.254599257449484417e-01
2.437404602648091112e-01
2.193664142383281723e-01
1.706183221853663778e-01
1.096832071191641278e-01
1.767118336919865640e-01
1.157767186257843139e-01
6.093511506620225004e-02
1.523377876655056529e-01
1.462442761588854667e-01
6.702862657282249170e-02
-4.265458054634163609e-02
1.157767186257843139e-01
1.279637416390247417e-01
9.749618410592364448e-02
9.140267259930340282e-02
1.401507646522652251e-01
1.462442761588854667e-01
1.584312991721258945e-01
1.157767186257843139e-01
9.140267259930340282e-02
1.401507646522652251e-01
9.749618410592364448e-02
-2.437404602648096663e-02
0.000000000000000000e+00
-2.437404602648085561e-02
0.000000000000000000e+00
-1.828053451986066946e-02
-3.046755753310115278e-02
-4.265458054634163609e-02
-7.312213807944278887e-02
0.000000000000000000e+00
-9.749618410592364448e-02
-1.340572531456449834e-01
-9.140267259930345833e-02
3.656106903972133892e-02
6.093511506620230556e-02
0.000000000000000000e+00
-2.437404602648096663e-02
-5.484160355958211941e-02
-1.828053451986066946e-02
1.828053451986066946e-02
-1.218702301324048332e-02
-3.656106903972133892e-02
6.702862657282249170e-02
7.921564958606291951e-02
7.312213807944273336e-02
7.312213807944273336e-02
2.437404602648085561e-02
4.874809205296182224e-02
-2.437404602648096663e-02
0.000000000000000000e+00
-3.046755753310115278e-02
3.656106903972133892e-02
6.093511506620225004e-02
-6.093511506620297169e-03
0.000000000000000000e+00
0.000000000000000000e+00
-4.265458054634163609e-02
-3.656106903972133892e-02
1.218702301324048332e-02
4.265458054634158058e-02
5.484160355958200839e-02
1.828053451986066946e-02
-3.046755753310115278e-02
-3.046755753310115278e-02
-7.921564958606297502e-02
-5.484160355958211941e-02
-1.828053451986066946e-02
-4.265458054634152507e-02
-5.484160355958200839e-02
-2.437404602648085561e-02
0.000000000000000000e+00
6.093511506620297169e-03
1.828053451986078048e-02
-4.265458054634152507e-02
2.437404602648096663e-02
8.530916109268321668e-02
1.218702301324048332e-02
-3.290496213574923834e-01
-6.824732887414656224e-01
-8.652786339400723170e-01
-7.068473347679464780e-01
-4.813874090229979252e-01
-3.595171788905934251e-01
-2.863950408111507473e-01
-1.706183221853664334e-01
-2.437404602648096663e-02
9.749618410592364448e-02
1.706183221853663778e-01
2.071793912250877168e-01
2.071793912250877168e-01
2.924885523177708779e-01
3.107690868376315474e-01
3.351431328641125695e-01
3.290496213574923279e-01
3.107690868376316584e-01
5.484160355958211941e-02
-3.838912249170742808e-01
-9.384007720195151059e-01
-2.711612620446000932e+00
-2.699425597432760782e+00
-7.434084038076678169e-01
4.826061113243220291e+00
6.623647007696187750e+00
5.203858826653674718e+00
3.784070645611161687e+00
1.346666042963070353e+00
-2.620209947846697807e-01
-8.530916109268318337e-01
-7.982500073672498253e-01
-5.179484780627192642e-01
-3.107690868376316029e-01
-2.559274832780494835e-01
-2.132729027317079584e-01
-1.401507646522651696e-01
-1.584312991721258390e-01
-2.376469487581888140e-01
-1.706183221853663223e-01
-1.401507646522651696e-01
-1.888988567052269918e-01
-2.254599257449483307e-01
-2.376469487581888140e-01
-2.985820638243911196e-01
-2.376469487581888140e-01
-1.462442761588854667e-01
-3.107690868376316029e-01
-4.570133629965169586e-01
-3.838912249170742808e-01
-3.534236673839731280e-01
-4.204522939567956197e-01
-4.265458054634159168e-01
-4.752938975163776281e-01
-5.606030586090609003e-01
-6.215381736752632058e-01
-5.545095471024406031e-01
-5.849771046355418669e-01
-5.606030586090609003e-01
-4.631068745031372558e-01
-4.326393169700362140e-01
-3.595171788905934251e-01
-1.888988567052269918e-01
-9.140267259930334731e-02
-3.046755753310104176e-02
0.000000000000000000e+00
0.000000000000000000e+00
0.000000000000000000e+00
3.046755753310109727e-02
6.093511506620227780e-02
4.874809205296179448e-02
3.046755753310115278e-02
4.265458054634160834e-02
-6.093511506620186147e-03
-3.046755753310109727e-02
6.093511506620241658e-03
-3.656106903972139444e-02
-5.484160355958203614e-02
-4.265458054634160834e-02
0.000000000000000000e+00
-4.265458054634160834e-02
0.000000000000000000e+00
5.484160355958206390e-02
5.484160355958203614e-02
1.218702301324045556e-02
3.656106903972136668e-02
7.312213807944273336e-02
1.218702301324045556e-02
6.702862657282251946e-02
1.096832071191641000e-01
7.312213807944273336e-02
6.093511506620227780e-02
1.218702301324045556e-02
3.656106903972136668e-02
7.312213807944273336e-02
0.000000000000000000e+00
-2.437404602648091112e-02
-6.093511506620241658e-03
0.000000000000000000e+00
-6.093511506620230556e-02
-3.046755753310115278e-02
-4.509198514898968280e-01
3.046755753310112502e-02
1.157767186257843139e-01
0.000000000000000000e+00
-3.046755753310112502e-02
-7.312213807944270560e-02
-3.656106903972136668e-02
-4.874809205296182224e-02
-3.046755753310112502e-02
1.218702301324045556e-02
0.000000000000000000e+00
3.046755753310115278e-02
2.437404602648091112e-02
0.000000000000000000e+00
2.437404602648091112e-02
-6.093511506620227780e-02
-3.656106903972136668e-02
-2.437404602648091112e-02
-2.437404602648091112e-02
0.000000000000000000e+00
1.828053451986069722e-02
-3.046755753310112502e-02
0.000000000000000000e+00
-6.093511506620213902e-03
-8.530916109268318892e-02
-4.265458054634158058e-02
-1.218702301324045556e-02
0.000000000000000000e+00
1.828053451986069722e-02
2.437404602648091112e-02
9.749618410592364448e-02
8.530916109268318892e-02
5.484160355958206390e-02
-6.093511506620213902e-03
-3.046755753310112502e-02
1.828053451986069722e-02
4.265458054634160834e-02
3.656106903972136668e-02
5.484160355958206390e-02
1.279637416390247973e-01
1.279637416390247973e-01
1.218702301324045556e-02
-1.828053451986068334e-01
-6.459122197017441724e-01
-7.616889383275284864e-01
-5.849771046355418669e-01
-5.484160355958205280e-01
-4.387328284766564002e-01
-2.924885523177709334e-01
-1.645248106787461639e-01
-6.702862657282251946e-02
1.035896956125438723e-01
1.340572531456450112e-01
1.949923682118472890e-01
2.010858797184675306e-01
2.254599257449484417e-01
1.706183221853663778e-01
1.888988567052270473e-01
2.437404602648091112e-01
2.924885523177709334e-01
4.874809205296182224e-02
-3.534236673839732390e-01
-7.860629843540094530e-01
-3.083316822349835284e+00
-3.272215679055062498e+00
-1.249169858857146709e+00
3.851099272183983846e+00
6.903948537000718311e+00
4.917463785842524082e+00
3.083316822349834840e+00
1.072458025165160089e+00
-4.692003860097575529e-01
-6.276316851818833920e-01
-4.265458054634159168e-01
-1.462442761588854390e-01
-4.874809205296179448e-02
-1.218702301324045556e-02
6.702862657282251946e-02
9.749618410592364448e-02
3.046755753310115278e-02
1.828053451986069722e-02
4.265458054634160834e-02
6.093511506620227780e-02
4.874809205296182224e-02
1.828053451986069722e-02
-2.437404602648091112e-02
-4.874809205296179448e-02
-3.656106903972136668e-02
-3.656106903972136668e-02
-8.530916109268318892e-02
-4.874809205296179448e-02
-1.218702301324045278e-01
-1.645248106787461639e-01
-2.376469487581888973e-01
-2.803015293045304501e-01
-4.021717594369349502e-01
-3.473301558773529418e-01
-3.777977134104540946e-01
-3.534236673839731280e-01
-3.960782479303147641e-01
-2.742080177979102640e-01
-2.376469487581888973e-01
9.749618410592364448e-02
-1.218702301324045556e-02
-2.376469487581888973e-01
-6.702862657282251946e-02
-6.093511506620227780e-02
7.312213807944273336e-02
8.530916109268318892e-02
1.828053451986069722e-02
1.035896956125438723e-01
4.265458054634160834e-02
6.093511506620227780e-02
4.265458054634160834e-02
6.093511506620227780e-02
-1.218702301324045556e-02
-4.874809205296182224e-02
-5.484160355958206390e-02
-8.530916109268316116e-02
-7.921564958606297502e-02
-5.484160355958206390e-02
-5.484160355958206390e-02
-5.484160355958206390e-02
1.828053451986069722e-02
-1.828053451986069722e-02
-4.265458054634160834e-02
4.874809205296182224e-02
1.218702301324045556e-02
-4.265458054634158058e-02
-1.218702301324045556e-02
3.656106903972136668e-02
1.218702301324045556e-02
-3.656106903972136668e-02
-3.046755753310115278e-02
-3.656106903972136668e-02
1.218702301324045556e-02
5.484160355958203614e-02
4.265458054634158058e-02
4.874809205296182224e-02
8.530916109268318892e-02
1.218702301324045556e-02
-1.218702301324045556e-02
-1.828053451986069722e-02
-2.437404602648091112e-02
-9.140267259930343058e-02
1.218702301324045556e-02
2.437404602648091112e-02
-6.093511506620241658e-03
-2.437404602648091112e-02
-3.046755753310115278e-02
-4.874809205296182224e-02
-7.312213807944273336e-02
6.093511506620241658e-03
3.656106903972136668e-02
1.828053451986069722e-02
3.656106903972136668e-02
-6.093511506620213902e-03
-3.046755753310115278e-02
6.093511506620213902e-03
-1.828053451986066946e-02
-1.218702301324045556e-02
-1.828053451986066946e-02
2.437404602648091112e-02
0.000000000000000000e+00
-6.093511506620241658e-03
-2.437404602648091112e-02
-3.046755753310112502e-02
2.437404602648091112e-02
2.437404602648091112e-02
-1.218702301324045556e-01
2.437404602648091112e-02
1.706183221853663778e-01
1.279637416390247973e-01
6.702862657282250558e-02
7.312213807944273336e-02
9.749618410592364448e-02
6.093511506620227780e-03
6.093511506620227780e-02
1.157767186257843278e-01
2.437404602648091112e-02
6.093511506620227780e-02
7.921564958606296114e-02
7.312213807944273336e-02
0.000000000000000000e+00
-2.742080177979102640e-01
-6.580992427149845447e-01
-7.555954268209081892e-01
-5.727900816223013836e-01
-4.448263399832765863e-01
-3.534236673839732390e-01
-2.742080177979102640e-01
-6.093511506620227780e-03
7.312213807944273336e-02
1.645248106787461362e-01
3.290496213574922724e-01
3.412366443707327557e-01
3.229561098508720307e-01
2.620209947846697807e-01
3.046755753310114168e-01
2.620209947846697807e-01
3.168625983442518446e-01
3.838912249170743918e-01
5.484160355958206390e-02
-4.204522939567957307e-01
-1.121206117218121801e+00
-3.253935144535201829e+00
-3.333150794121264582e+00
-3.777977134104541501e-01
4.947931343375624458e+00
6.958790140560299875e+00
4.795593555710119027e+00
2.547087809767254907e+00
4.813874090229979807e-01
-5.545095471024407141e-01
-6.641927542216048419e-01
-4.570133629965170696e-01
-2.010858797184675029e-01
-9.749618410592364448e-02
-6.093511506620225004e-02
0.000000000000000000e+00
3.046755753310115278e-02
6.093511506620241658e-03
4.265458054634158058e-02
9.749618410592364448e-02
7.921564958606297502e-02
0.000000000000000000e+00
-1.218702301324048332e-02
1.218702301324042780e-02
2.437404602648091112e-02
5.484160355958206390e-02
3.656106903972133892e-02
-6.093511506620241658e-03
-6.093511506620241658e-03
-1.218702301324048332e-02
-3.656106903972139444e-02
-1.340572531456450112e-01
-1.462442761588854667e-01
-1.828053451986068334e-01
-2.681145062912899668e-01
-2.132729027317079862e-01
-2.254599257449484417e-01
-2.071793912250877445e-01
-1.462442761588854390e-01
-6.702862657282249170e-02
-7.312213807944273336e-02
0.000000000000000000e+00
0.000000000000000000e+00
2.437404602648096663e-02
1.035896956125438306e-01
1.767118336919866195e-01
1.888988567052271028e-01
1.157767186257843139e-01
1.645248106787461362e-01
1.888988567052271028e-01
1.645248106787461362e-01
1.340572531456449834e-01
1.523377876655056529e-01
2.437404602648091112e-01
4.265458054634163609e-02
9.140267259930345833e-02
6.702862657282249170e-02
5.484160355958200839e-02
9.140267259930345833e-02
1.035896956125438306e-01
9.140267259930345833e-02
1.096832071191641278e-01
1.157767186257843139e-01
5.484160355958200839e-02
1.218702301324046111e-01
1.157767186257843139e-01
1.035896956125438306e-01
2.010858797184674751e-01
1.218702301324046111e-01
9.140267259930345833e-02
1.340572531456449834e-01
1.523377876655056529e-01
6.702862657282249170e-02
8.530916109268316116e-02
6.093511506620230556e-02
7.921564958606297502e-02
2.437404602648096663e-02
1.035896956125438306e-01
1.096832071191641278e-01
3.046755753310115278e-02
3.046755753310115278e-02
2.437404602648096663e-02
2.437404602648096663e-02
1.828053451986066946e-02
7.921564958606297502e-02
4.265458054634163609e-02
-4.265458054634158058e-02
-6.093511506620241658e-03
2.437404602648096663e-02
-6.093511506620241658e-03
1.828053451986066946e-02
3.046755753310120829e-02
-3.046755753310109727e-02
0.000000000000000000e+00
3.656106903972133892e-02
-6.093511506620241658e-03
4.874809205296176673e-02
6.093511506620241658e-03
-1.828053451986066946e-02
1.828053451986066946e-02
-1.218702301324042780e-02
1.218702301324042780e-02
0.000000000000000000e+00
0.000000000000000000e+00
-1.949923682118472890e-01
-1.828053451986072497e-02
0.000000000000000000e+00
1.828053451986072497e-02
0.000000000000000000e+00
0.000000000000000000e+00
9.140267259930343058e-02
6.093511506620241658e-03
-3.046755753310112502e-02
3.046755753310112502e-02
-1.828053451986069722e-02
4.874809205296182224e-02
-1.584312991721259223e-01
6.093511506620213902e-03
-6.093511506620241658e-03
1.828053451986069722e-02
6.093511506620241658e-03
-7.921564958606294726e-02
-1.949923682118472890e-01
-7.007538232613261808e-01
-9.688683295526161476e-01
-7.555954268209083002e-01
-6.824732887414655114e-01
-4.021717594369350057e-01
-3.107690868376316029e-01
-2.071793912250877445e-01
-6.093511506620227780e-02
7.921564958606294726e-02
9.749618410592364448e-02
1.218702301324045556e-01
1.096832071191641000e-01
1.462442761588854667e-01
1.584312991721259223e-01
1.888988567052270473e-01
1.218702301324045556e-01
1.462442761588854667e-01
0.000000000000000000e+00
-4.082652709435552474e-01
-7.616889383275284864e-01
-3.058942776323354096e+00
-3.302683236588163318e+00
-1.407601158029272659e+00
3.564704231372833210e+00
6.684582122762389389e+00
4.966211877895485571e+00
3.375805374667606440e+00
1.383227112002791692e+00
-4.387328284766564002e-01
-7.616889383275284864e-01
-6.946603117547059947e-01
-4.448263399832765863e-01
-1.828053451986068612e-01
-7.312213807944273336e-02
-2.010858797184675306e-01
-1.706183221853663778e-01
-1.462442761588854667e-01
-1.218702301324045556e-01
-1.401507646522652251e-01
-9.749618410592364448e-02
-1.340572531456450389e-01
-1.523377876655057084e-01
-1.706183221853663778e-01
-2.315534372515686834e-01
-2.437404602648091112e-01
-2.924885523177709334e-01
-3.046755753310114168e-01
-3.838912249170743363e-01
-3.229561098508720307e-01
-3.777977134104541501e-01
-3.899847364236945224e-01
-4.143587824501754890e-01
-4.752938975163777946e-01
-6.093511506620228335e-01
-6.154446621686429086e-01
-5.606030586090610113e-01
-5.849771046355418669e-01
-5.118549665560991890e-01
-5.118549665560991890e-01
-4.204522939567957307e-01
-2.985820638243912306e-01
-2.376469487581888973e-01
-2.193664142383281723e-01
-8.530916109268318892e-02
-1.218702301324045556e-02
-6.093511506620213902e-03
4.265458054634160834e-02
6.093511506620227780e-02
1.706183221853663778e-01
6.093511506620227780e-02
-1.828053451986069722e-02
2.437404602648091112e-02
1.828053451986069722e-02
2.437404602648091112e-02
1.218702301324045556e-02
6.093511506620241658e-03
4.874809205296182224e-02
9.749618410592364448e-02
2.437404602648091112e-02
-3.046755753310115278e-02
7.921564958606297502e-02
1.523377876655057084e-01
5.484160355958206390e-02
4.874809205296182224e-02
9.140267259930343058e-02
7.921564958606294726e-02
8.530916109268318892e-02
-6.093511506620241658e-03
4.874809205296182224e-02
6.093511506620213902e-03
6.093511506620213902e-03
-3.656106903972139444e-02
-7.312213807944273336e-02
-1.279637416390247973e-01
-5.484160355958206390e-02
-5.484160355958206390e-02
-4.874809205296182224e-02
-1.523377876655057084e-01
-1.218702301324045278e-01
-7.312213807944270560e-02
-6.093511506620213902e-03
0.000000000000000000e+00
-6.093511506620213902e-03
9.140267259930341670e-02
-4.874809205296179448e-02
-9.749618410592361673e-02
-4.874809205296179448e-02
-5.484160355958203614e-02
-2.437404602648091112e-02
1.218702301324045556e-02
-2.437404602648091112e-02
0.000000000000000000e+00
2.437404602648091112e-02
6.093511506620227780e-02
6.093511506620241658e-03
-5.484160355958203614e-02
-1.218702301324045556e-02
-1.218702301324045556e-02
0.000000000000000000e+00
1.828053451986069722e-02
0.000000000000000000e+00
1.828053451986069722e-02
3.046755753310115278e-02
-6.093511506620213902e-03
3.656106903972136668e-02
-4.874809205296179448e-02
-3.656106903972136668e-02
5.484160355958206390e-02
1.218702301324045556e-02
4.265458054634160834e-02
0.000000000000000000e+00
4.874809205296182224e-02
1.096832071191641000e-01
4.874809205296182224e-02
-4.265458054634160834e-02
2.437404602648091112e-02
6.093511506620227780e-02
1.218702301324045556e-02
-1.218702301324045556e-02
6.093511506620227780e-02
-3.046755753310112502e-02
-3.290496213574922724e-01
-5.727900816223013836e-01
-7.068473347679463670e-01
-6.824732887414655114e-01
-5.423225240892002308e-01
-3.717042019038339085e-01
-3.473301558773529418e-01
-1.096832071191641000e-01
-1.218702301324045556e-02
9.140267259930341670e-02
1.645248106787461362e-01
1.828053451986068334e-01
1.584312991721259223e-01
1.523377876655057084e-01
1.645248106787461362e-01
1.949923682118472890e-01
1.523377876655057084e-01
2.254599257449484417e-01
3.656106903972136668e-02
-4.204522939567957307e-01
-1.017616421605578081e+00
-2.772547735512203904e+00
-2.638490482366558698e+00
1.523377876655057084e-01
5.130736688574231152e+00
6.690675634269009464e+00
5.222139361173534944e+00
3.412366443707327335e+00
1.285730927896868048e+00
-3.656106903972136113e-01
-9.140267259930341393e-01
-8.591851224334521309e-01
-6.337251966885036891e-01
-4.265458054634159168e-01
-3.412366443707327557e-01
-2.376469487581888973e-01
-2.863950408111507473e-01
-2.193664142383281723e-01
-1.828053451986068334e-01
-1.584312991721259223e-01
-1.218702301324045556e-01
-1.523377876655057084e-01
-1.157767186257843139e-01
-1.706183221853663778e-01
-1.949923682118472890e-01
-2.315534372515686279e-01
-1.949923682118472890e-01
-2.681145062912899668e-01
-3.656106903972137223e-01
-3.473301558773530529e-01
-3.534236673839732390e-01
-4.387328284766564002e-01
-4.692003860097574974e-01
-4.752938975163777946e-01
-5.666965701156811974e-01
-6.520057312083644696e-01
-6.093511506620228335e-01
-6.459122197017441724e-01
-6.641927542216048419e-01
-5.666965701156811974e-01
-4.631068745031373113e-01
-3.838912249170743363e-01
-2.742080177979102640e-01
-1.340572531456449834e-01
-3.656106903972136668e-02
0.000000000000000000e+00
0.000000000000000000e+00
0.000000000000000000e+00
0.000000000000000000e+00
3.046755753310112502e-02
0.000000000000000000e+00
1.828053451986069722e-02
7.921564958606297502e-02
5.484160355958203614e-02
0.000000000000000000e+00
-1.828053451986069722e-02
0.000000000000000000e+00
-4.874809205296182224e-02
-2.437404602648091112e-02
3.656106903972136668e-02
2.437404602648091112e-02
3.656106903972136668e-02
7.921564958606294726e-02
6.093511506620227780e-02
7.312213807944270560e-02
1.340572531456450112e-01
1.401507646522652528e-01
7.312213807944270560e-02
9.749618410592361673e-02
8.530916109268318892e-02
3.656106903972136668e-02
1.828053451986066946e-02
2.437404602648091112e-02
-3.656106903972136668e-02
-4.265458054634160834e-02
6.093511506620213902e-03
-4.265458054634160834e-02
-1.157767186257843278e-01
-4.874809205296182224e-02
-9.749618410592364448e-02
-1.096832071191641000e-01
-6.702862657282250558e-02
-3.656106903972136668e-02
-4.874809205296182224e-02
-4.265458054634160834e-02
-1.828053451986066946e-02
-6.093511506620213902e-03
-4.874809205296182224e-02
6.093511506620241658e-03
6.093511506620241658e-03
1.828053451986069722e-02
-6.093511506620213902e-03
1.218702301324045556e-02
-7.312213807944271948e-02
1.218702301324045556e-02
2.071793912250877723e-01
-6.093511506620213902e-03
2.437404602648091112e-02
5.484160355958206390e-02
6.093511506620241658e-03
3.656106903972136668e-02
-3.046755753310112502e-02
-6.093511506620213902e-03
-3.656106903972136668e-02
1.828053451986069722e-02
1.828053451986069722e-02
-3.656106903972136668e-02
-3.046755753310115278e-02
0.000000000000000000e+00
-2.437404602648091112e-02
1.218702301324045556e-02
7.312213807944270560e-02
2.437404602648091112e-02
1.828053451986066946e-02
3.656106903972136668e-02
3.656106903972136668e-02
5.484160355958203614e-02
8.530916109268318892e-02
9.749618410592361673e-02
7.312213807944270560e-02
-1.706183221853663778e-01
-5.545095471024407141e-01
-8.226240533937306809e-01
-6.215381736752632058e-01
-5.606030586090609003e-01
-4.326393169700362140e-01
-3.534236673839732390e-01
-2.254599257449484417e-01
-1.279637416390247973e-01
1.218702301324045556e-02
1.340572531456450112e-01
1.462442761588854390e-01
1.401507646522652528e-01
1.828053451986068334e-01
2.010858797184675306e-01
2.559274832780495390e-01
3.229561098508720307e-01
2.924885523177709334e-01
1.523377876655057084e-01
-2.742080177979102640e-01
-6.641927542216047309e-01
-2.699425597432760782e+00
-3.442834001240428599e+00
-1.517284365148436676e+00
3.485488581786770457e+00
6.964883652066919950e+00
5.478066844451584316e+00
3.193000029468999301e+00
1.121206117218121801e+00
-2.742080177979102640e-01
-6.702862657282250280e-01
-5.118549665560991890e-01
-2.315534372515686556e-01
-7.921564958606296114e-02
-4.874809205296182224e-02
0.000000000000000000e+00
2.437404602648091112e-02
-3.046755753310113890e-02
-4.874809205296182224e-02
-1.218702301324045556e-02
-1.828053451986068334e-02
-2.437404602648091112e-02
3.046755753310113890e-02
0.000000000000000000e+00
-9.140267259930341670e-02
-6.702862657282250558e-02
-6.093511506620227780e-02
-1.523377876655056806e-01
-1.523377876655056806e-01
-1.401507646522652251e-01
-1.949923682118472890e-01
-2.924885523177709334e-01
-3.229561098508720862e-01
-3.838912249170743918e-01
-4.265458054634159168e-01
-4.326393169700362140e-01
-4.692003860097575529e-01
-4.143587824501754335e-01
-3.656106903972136113e-01
-3.351431328641125695e-01
-3.168625983442518446e-01
-1.828053451986068056e-01
-1.401507646522652251e-01
-3.656106903972136668e-02
-1.828053451986068334e-02
8.530916109268318892e-02
6.702862657282250558e-02
9.140267259930341670e-02
1.828053451986068334e-01
1.584312991721259223e-01
8.530916109268318892e-02
1.279637416390247973e-01
1.523377876655057084e-01
1.035896956125438723e-01
-3.656106903972136668e-02
7.312213807944273336e-02
5.484160355958205002e-02
3.656106903972136668e-02
6.093511506620227780e-02
1.218702301324045556e-02
-2.437404602648091112e-02
3.046755753310113890e-02
8.530916109268318892e-02
9.140267259930341670e-02
1.096832071191641000e-01
4.265458054634159446e-02
8.530916109268318892e-02
9.749618410592364448e-02
1.157767186257843278e-01
8.530916109268318892e-02
8.530916109268318892e-02
1.157767186257843278e-01
8.530916109268318892e-02
3.656106903972136668e-02
1.218702301324045556e-02
6.093511506620227780e-03
0.000000000000000000e+00
4.265458054634159446e-02
1.218702301324045556e-02
6.702862657282250558e-02
7.921564958606296114e-02
4.265458054634159446e-02
3.656106903972136668e-02
3.046755753310113890e-02
4.265458054634159446e-02
6.093511506620227780e-02
4.265458054634159446e-02
1.218702301324045556e-02
0.000000000000000000e+00
6.093511506620227780e-03
0.000000000000000000e+00
0.000000000000000000e+00
-4.265458054634159446e-02
-2.437404602648091112e-02
-3.046755753310113890e-02
-3.046755753310113890e-02
0.000000000000000000e+00
-4.874809205296182224e-02
-8.530916109268318892e-02
-5.484160355958205002e-02
1.218702301324045556e-02
-1.218702301324045556e-02
1.828053451986068334e-02
6.093511506620227780e-02
2.437404602648091112e-02
1.828053451986068334e-02
-6.093511506620227780e-03
3.046755753310113890e-02
-1.828053451986068334e-02
2.437404602648091112e-02
-1.828053451986068334e-02
0.000000000000000000e+00
-1.828053451986068334e-02
2.437404602648091112e-02
-2.437404602648091112e-02
-4.874809205296180836e-02
6.093511506620227780e-03
3.656106903972136668e-02
3.656106903972136668e-02
3.656106903972136668e-02
3.656106903972136668e-02
-1.949923682118472890e-01
-8.774656569533128003e-01
-8.469980994202116475e-01
-4.204522939567956752e-01
-6.398187081951238753e-01
-5.484160355958204169e-01
-4.387328284766564557e-01
-3.412366443707327557e-01
-1.462442761588854667e-01
-7.312213807944271948e-02
4.265458054634159446e-02
6.093511506620227780e-02
1.462442761588854667e-01
1.218702301324045417e-01
1.523377876655056806e-01
2.498339717714293251e-01
2.254599257449484140e-01
2.498339717714293251e-01
1.462442761588854667e-01
-3.351431328641125140e-01
-6.337251966885038001e-01
-2.364282464568648212e+00
-3.436740489733808523e+00
-2.090074446770738170e+00
2.540994298260634832e+00
6.580992427149845447e+00
5.319635545279458810e+00
3.509862627813251201e+00
1.614780549254360320e+00
-1.645248106787461362e-01
-7.616889383275284864e-01
-5.971641276487822392e-01
-3.838912249170743363e-01
-2.437404602648091112e-01
-1.035896956125438861e-01
-9.749618410592364448e-02
-6.093511506620230556e-02
-2.437404602648091112e-02
-1.218702301324048332e-02
-4.874809205296182224e-02
-2.437404602648091112e-02
-4.265458054634158058e-02
-1.279637416390247973e-01
-9.140267259930340282e-02
-8.530916109268321668e-02
-1.157767186257843139e-01
-1.462442761588854667e-01
-1.157767186257843139e-01
-1.401507646522652251e-01
-2.071793912250877723e-01
-2.193664142383282001e-01
-2.376469487581888695e-01
-3.351431328641125140e-01
-3.351431328641125140e-01
-3.960782479303148196e-01
-3.838912249170743363e-01
-3.656106903972136668e-01
-3.595171788905934807e-01
-3.656106903972136668e-01
-3.168625983442518446e-01
-2.010858797184675306e-01
-2.010858797184675306e-01
-7.312213807944273336e-02
0.000000000000000000e+00
0.000000000000000000e+00
0.000000000000000000e+00
4.874809205296182224e-02
0.000000000000000000e+00
6.093511506620227780e-03
6.093511506620227780e-02
6.702862657282250558e-02
1.584312991721258945e-01
4.265458054634159446e-02
9.140267259930341670e-02
5.484160355958205002e-02
1.828053451986068334e-02
2.437404602648091112e-02
-3.046755753310113890e-02
-6.702862657282250558e-02
-2.437404602648091112e-02
3.656106903972136668e-02
0.000000000000000000e+00
6.093511506620227780e-02
9.749618410592364448e-02
5.484160355958205002e-02
5.484160355958205002e-02
6.093511506620227780e-02
2.437404602648091112e-02
0.000000000000000000e+00
4.265458054634159446e-02
3.656106903972136668e-02
3.046755753310113890e-02
6.702862657282250558e-02
6.093511506620227780e-02
2.437404602648091112e-02
3.656106903972136668e-02
3.656106903972136668e-02
2.437404602648091112e-02
2.437404602648091112e-02
6.702862657282250558e-02
4.874809205296182224e-02
1.218702301324045556e-02
3.046755753310113890e-02
2.437404602648091112e-02
0.000000000000000000e+00
5.484160355958205002e-02
5.484160355958205002e-02
-1.218702301324045556e-02
4.265458054634159446e-02
1.035896956125438723e-01
6.093511506620227780e-03
1.828053451986068334e-02
0.000000000000000000e+00
-1.828053451986068334e-02
6.093511506620227780e-03
4.265458054634159446e-02
-3.656106903972136668e-02
-5.484160355958205002e-02
2.437404602648091112e-02
6.093511506620227780e-03
1.218702301324045556e-02
-1.218702301324045556e-02
-4.874809205296182224e-02
-4.874809205296182224e-02
0.000000000000000000e+00
3.656106903972136668e-02
-1.828053451986068334e-02
-6.093511506620227780e-03
3.046755753310113890e-02
-3.656106903972136668e-02
-3.656106903972136668e-02
-1.218702301324045556e-02
-3.046755753310113890e-02
6.093511506620227780e-03
-1.828053451986068334e-02
0.000000000000000000e+00
-1.828053451986068334e-02
-6.093511506620227780e-03
7.312213807944273336e-02
5.484160355958205002e-02
1.218702301324045556e-02
8.530916109268318892e-02
-1.584312991721259223e-01
-5.118549665560991890e-01
-7.677824498341486725e-01
-6.520057312083643586e-01
-5.910706161421621641e-01
-4.082652709435552474e-01
-2.681145062912899668e-01
-2.437404602648091112e-01
-2.437404602648091112e-02
1.035896956125438723e-01
1.767118336919866195e-01
2.132729027317079584e-01
3.107690868376316029e-01
1.888988567052270473e-01
2.376469487581888695e-01
2.803015293045304501e-01
2.924885523177709334e-01
2.254599257449484417e-01
1.279637416390247973e-01
-3.046755753310114168e-01
-7.251278692878071475e-01
-2.565368344287115576e+00
-3.491582093293390088e+00
-2.327721395528926873e+00
3.010194684270392607e+00
6.684582122762389389e+00
5.447599286918483052e+00
3.625639346439035737e+00
1.535564899668297345e+00
-1.462442761588854667e-01
-7.555954268209083002e-01
-6.824732887414655114e-01
-3.899847364236945779e-01
-2.742080177979102640e-01
-2.010858797184675306e-01
-1.279637416390247973e-01
-1.888988567052270473e-01
-1.828053451986068612e-01
-1.218702301324045417e-01
-9.140267259930341670e-02
-9.140267259930341670e-02
-1.096832071191640862e-01
-1.584312991721258945e-01
-1.767118336919866195e-01
-1.706183221853663778e-01
-1.645248106787461362e-01
-2.803015293045305056e-01
-2.803015293045305056e-01
-3.777977134104541501e-01
-3.838912249170743363e-01
-3.656106903972136668e-01
-3.960782479303148196e-01
-4.509198514898968835e-01
-4.813874090229980363e-01
-5.727900816223013836e-01
-5.910706161421620530e-01
-6.459122197017441724e-01
-5.849771046355418669e-01
-6.337251966885036891e-01
-5.727900816223013836e-01
-4.082652709435552474e-01
-3.351431328641125140e-01
-2.681145062912900223e-01
-2.437404602648091112e-01
-1.888988567052270473e-01
-9.140267259930341670e-02
0.000000000000000000e+00
4.874809205296182224e-02
6.093511506620227780e-02
1.828053451986068334e-02
1.035896956125438723e-01
7.312213807944273336e-02
6.702862657282250558e-02
6.702862657282250558e-02
1.096832071191641000e-01
4.265458054634159446e-02
7.921564958606296114e-02
7.312213807944273336e-02
5.484160355958205002e-02
6.093511506620227780e-02
9.749618410592364448e-02
2.437404602648091112e-02
6.702862657282250558e-02
7.312213807944273336e-02
6.702862657282250558e-02
7.312213807944273336e-02
5.484160355958205002e-02
1.828053451986068334e-02
2.437404602648091112e-02
1.096832071191641000e-01
9.140267259930341670e-02
-1.218702301324045556e-02
-2.437404602648091112e-02
-3.046755753310113890e-02
-6.093511506620227780e-02
1.218702301324045556e-02
7.921564958606296114e-02
-6.093511506620227780e-03
-3.656106903972136668e-02
-6.093511506620227780e-03
-7.312213807944273336e-02
-5.484160355958205002e-02
-4.265458054634159446e-02
-5.484160355958205002e-02
-1.218702301324045556e-01
-4.265458054634159446e-02
3.656106903972136668e-02
-6.093511506620227780e-03
2.437404602648091112e-02
-6.093511506620227780e-03
-4.265458054634159446e-02
-4.265458054634159446e-02
-1.218702301324045556e-02
-8.530916109268318892e-02
-4.874809205296182224e-02
5.484160355958205002e-02
6.093511506620227780e-02
4.265458054634159446e-02
-1.218702301324045556e-02
2.437404602648091112e-02
2.437404602648091112e-02
3.656106903972136668e-02
-1.828053451986068334e-02
-4.874809205296182224e-02
-1.218702301324045556e-02
1.767118336919865917e-01
6.702862657282250558e-02
-3.046755753310113890e-02
-2.437404602648091112e-02
3.046755753310113890e-02
-6.093511506620227780e-03
-2.437404602648091112e-02
1.523377876655057084e-01
4.874809205296182224e-02
1.828053451986068334e-02
3.656106903972136668e-02
1.828053451986068334e-02
6.702862657282250558e-02
7.312213807944273336e-02
-1.218702301324045556e-02
2.437404602648091112e-02
-2.559274832780495945e-01
-6.398187081951239863e-01
-8.591851224334521309e-01
-6.032576391554025363e-01
-5.240419895693395613e-01
-5.118549665560991890e-01
-3.107690868376316029e-01
-1.279637416390247695e-01
-1.218702301324045556e-02
1.157767186257843278e-01
1.888988567052270473e-01
1.523377876655057084e-01
1.218702301324045556e-01
1.949923682118472890e-01
2.254599257449484417e-01
2.010858797184675306e-01
2.559274832780495390e-01
2.620209947846697807e-01
0.000000000000000000e+00
-3.838912249170743363e-01
-7.616889383275284864e-01
-2.638490482366558698e+00
-2.851763385098266657e+00
-3.777977134104540946e-01
4.423889353806285563e+00
6.757704260841832955e+00
5.490253867464825355e+00
3.717042019038339085e+00
1.590406503227879575e+00
-1.523377876655057084e-01
-8.165305418871106058e-01
-9.384007720195151059e-01
-6.215381736752633168e-01
-3.717042019038338529e-01
-3.899847364236945779e-01
-2.863950408111506918e-01
-2.498339717714292973e-01
-2.376469487581888695e-01
-2.132729027317079584e-01
-1.949923682118472890e-01
-2.071793912250877168e-01
-2.193664142383282001e-01
-2.315534372515686279e-01
-2.620209947846697807e-01
-2.559274832780495390e-01
-2.132729027317079584e-01
-2.010858797184674751e-01
-2.924885523177709334e-01
-2.924885523177709334e-01
-3.290496213574922724e-01
-3.899847364236945779e-01
-5.057614550494788919e-01
-4.752938975163777946e-01
-5.057614550494788919e-01
-5.606030586090610113e-01
-5.788835931289216807e-01
-5.849771046355418669e-01
-7.738759613407689697e-01
-5.545095471024407141e-01
-3.899847364236945779e-01
-3.777977134104540946e-01
-2.924885523177709334e-01
-2.559274832780495390e-01
-1.706183221853663778e-01
-2.437404602648091112e-02
0.000000000000000000e+00
0.000000000000000000e+00
8.530916109268318892e-02
1.218702301324045556e-01
1.523377876655056806e-01
1.706183221853664056e-01
1.340572531456450112e-01
1.462442761588854390e-01
7.921564958606294726e-02
2.010858797184675029e-01
1.401507646522652528e-01
9.140267259930340282e-02
1.218702301324045278e-01
1.645248106787461639e-01
1.888988567052270751e-01
1.828053451986068334e-01
2.803015293045304501e-01
2.071793912250877445e-01
1.888988567052270751e-01
1.888988567052270751e-01
1.888988567052270751e-01
1.523377876655056806e-01
2.010858797184675029e-01
2.010858797184675029e-01
9.749618410592364448e-02
1.584312991721259223e-01
1.096832071191641000e-01
3.046755753310112502e-02
1.218702301324045556e-02
-6.093511506620241658e-03
2.437404602648091112e-02
-4.265458054634159446e-02
-1.828053451986068334e-02
-4.265458054634159446e-02
-6.702862657282250558e-02
-2.437404602648091112e-02
-2.437404602648091112e-02
-5.484160355958205002e-02
-2.437404602648091112e-02
0.000000000000000000e+00
0.000000000000000000e+00
0.000000000000000000e+00
-1.218702301324045556e-02
6.093511506620213902e-03
-1.218702301324045556e-02
4.265458054634158058e-02
-2.437404602648091112e-02
-1.218702301324045556e-02
6.093511506620213902e-03
6.702862657282249170e-02
6.093511506620213902e-03
3.046755753310112502e-02
6.702862657282249170e-02
4.874809205296182224e-02
0.000000000000000000e+00
6.093511506620213902e-03
-2.437404602648091112e-02
-6.093511506620241658e-03
-3.656106903972136668e-02
4.874809205296182224e-02
-6.093511506620241658e-03
1.828053451986066946e-02
3.656106903972136668e-02
2.437404602648091112e-02
3.656106903972136668e-02
1.218702301324045556e-02
-1.218702301324045556e-02
3.656106903972136668e-02
1.218702301324045556e-02
1.828053451986069722e-02
-2.376469487581888695e-01
-5.545095471024407141e-01
-8.469980994202116475e-01
-7.738759613407689697e-01
-6.337251966885036891e-01
-5.545095471024407141e-01
-4.752938975163777391e-01
-3.899847364236945779e-01
-2.071793912250877445e-01
-1.340572531456450112e-01
2.437404602648091112e-02
5.484160355958203614e-02
0.000000000000000000e+00
4.874809205296182224e-02
2.376469487581888695e-01
2.437404602648091112e-01
2.254599257449484140e-01
3.473301558773529973e-01
2.254599257449484140e-01
-2.437404602648091112e-01
-5.301355010759598585e-01
-2.266786280462724790e+00
-3.162532471935898037e+00
-1.846333986505928948e+00
3.369711863160985921e+00
7.251278692878070586e+00
5.947267230461341647e+00
3.936408433276667118e+00
1.474629784602095262e+00
-1.949923682118472890e-01
-7.373148923010475198e-01
-6.398187081951238753e-01
-3.595171788905934251e-01
-2.315534372515686279e-01
-1.157767186257843139e-01
-7.921564958606294726e-02
0.000000000000000000e+00
-1.218702301324045556e-02
-1.218702301324045556e-02
-1.828053451986068334e-02
1.218702301324045556e-02
0.000000000000000000e+00
-3.656106903972136668e-02
-1.218702301324045556e-02
-7.312213807944273336e-02
-7.312213807944273336e-02
-4.874809205296182224e-02
-9.140267259930340282e-02
-9.140267259930340282e-02
-1.584312991721259223e-01
-1.706183221853663778e-01
-2.559274832780495390e-01
-2.437404602648091112e-01
-3.107690868376316029e-01
-3.717042019038339085e-01
-3.960782479303148196e-01
-4.143587824501754890e-01
-3.777977134104540946e-01
-3.656106903972136668e-01
-3.595171788905934251e-01
-2.742080177979102640e-01
-2.315534372515686279e-01
-8.530916109268318892e-02
-1.828053451986068334e-02
0.000000000000000000e+00
3.656106903972136668e-02
5.788835931289216807e-01
7.921564958606296114e-02
1.462442761588854667e-01
2.010858797184675306e-01
1.767118336919866195e-01
1.767118336919866195e-01
1.645248106787461362e-01
1.157767186257843278e-01
1.096832071191641000e-01
1.279637416390247973e-01
1.218702301324045417e-01
1.340572531456449834e-01
1.218702301324045417e-01
1.340572531456449834e-01
1.279637416390247973e-01
1.035896956125438723e-01
1.279637416390247973e-01
1.340572531456449834e-01
1.767118336919866195e-01
2.315534372515686279e-01
1.645248106787461362e-01
1.949923682118472890e-01
2.193664142383282001e-01
2.254599257449484417e-01
2.071793912250877168e-01
1.523377876655057084e-01
1.767118336919866195e-01
1.340572531456449834e-01
1.279637416390247973e-01
1.279637416390247973e-01
1.157767186257843278e-01
6.093511506620227780e-02
1.340572531456449834e-01
1.218702301324045417e-01
6.702862657282250558e-02
1.340572531456449834e-01
9.749618410592364448e-02
5.484160355958205002e-02
3.656106903972136668e-02
0.000000000000000000e+00
0.000000000000000000e+00
3.046755753310113890e-02
4.874809205296182224e-02
3.046755753310113890e-02
-3.046755753310113890e-02
3.656106903972136668e-02
-2.437404602648091112e-02
-1.828053451986068334e-02
1.828053451986068334e-02
3.656106903972136668e-02
-6.093511506620227780e-03
4.265458054634159446e-02
0.000000000000000000e+00
-6.093511506620227780e-02
1.828053451986068334e-02
-3.656106903972136668e-02
-6.093511506620227780e-02
-7.312213807944273336e-02
1.828053451986068334e-02
0.000000000000000000e+00
-3.046755753310113890e-02
3.046755753310113890e-02
0.000000000000000000e+00
-6.093511506620227780e-03
4.265458054634159446e-02
6.093511506620227780e-03
0.000000000000000000e+00
0.000000000000000000e+00
-1.218702301324045556e-02
-1.828053451986068334e-02
6.093511506620227780e-03
1.828053451986068334e-02
7.921564958606296114e-02
-1.157767186257843139e-01
-5.118549665560991890e-01
-7.982500073672498253e-01
-7.677824498341486725e-01
-6.885668002480856975e-01
-5.788835931289216807e-01
-4.631068745031372558e-01
-3.534236673839731835e-01
-1.888988567052270473e-01
-5.484160355958205002e-02
4.265458054634159446e-02
1.645248106787461362e-01
1.279637416390247973e-01
1.096832071191641000e-01
1.462442761588854667e-01
1.523377876655057084e-01
1.340572531456450112e-01
2.132729027317079584e-01
1.401507646522652251e-01
-2.681145062912899668e-01
-4.631068745031372558e-01
-2.047419866224396312e+00
-3.515956139319871276e+00
-2.723799643459241970e+00
9.262137490062746226e-01
6.337251966885036225e+00
5.983828299501062986e+00
3.936408433276667118e+00
2.059606889237636906e+00
-1.096832071191641000e-01
-7.555954268209081892e-01
-7.068473347679463670e-01
-5.423225240892002308e-01
-2.376469487581888973e-01
-1.157767186257843139e-01
-7.921564958606294726e-02
9.140267259930341670e-02
-2.437404602648091112e-02
-4.874809205296182224e-02
-4.874809205296182224e-02
-4.326393169700361030e-01
1.828053451986068334e-02
-5.484160355958203614e-02
-3.046755753310112502e-02
-5.484160355958203614e-02
-7.921564958606294726e-02
-3.046755753310112502e-02
-6.093511506620227780e-02
-1.218702301324045556e-01
-1.401507646522652528e-01
-1.462442761588854390e-01
-1.949923682118472612e-01
-2.254599257449484140e-01
-2.315534372515686556e-01
-2.559274832780495945e-01
-2.924885523177709334e-01
-3.046755753310114168e-01
-2.681145062912899668e-01
-1.949923682118472612e-01
-1.401507646522652528e-01
-8.530916109268318892e-02
-7.312213807944273336e-02
0.000000000000000000e+00
0.000000000000000000e+00
0.000000000000000000e+00
0.000000000000000000e+00
3.656106903972136668e-02
2.437404602648091112e-02
-2.437404602648091112e-02
-3.656106903972136668e-02
3.656106903972133892e-02
3.046755753310115278e-02
5.484160355958206390e-02
2.437404602648093888e-02
-3.046755753310115278e-02
-3.046755753310115278e-02
-3.656106903972133892e-02
-3.046755753310112502e-02
1.828053451986066946e-02
-3.656106903972139444e-02
0.000000000000000000e+00
0.000000000000000000e+00
2.437404602648091112e-02
0.000000000000000000e+00
-1.218702301324048332e-02
-1.218702301324042780e-02
0.000000000000000000e+00
2.437404602648091112e-02
1.828053451986066946e-02
-6.093511506620186147e-03
-3.656106903972139444e-02
0.000000000000000000e+00
0.000000000000000000e+00
1.828053451986066946e-02
-1.828053451986066946e-02
3.046755753310115278e-02
-2.437404602648085561e-02
-6.093511506620297169e-03
2.437404602648096663e-02
2.437404602648096663e-02
1.828053451986066946e-02
7.312213807944267785e-02
0.000000000000000000e+00
-4.265458054634163609e-02
4.265458054634152507e-02
-6.093511506620186147e-03
-4.874809205296182224e-02
1.218702301324048332e-02
4.874809205296182224e-02
-6.093511506620186147e-03
6.093511506620186147e-03
4.874809205296182224e-02
-6.093511506620186147e-03
-1.828053451986066946e-02
0.000000000000000000e+00
0.000000000000000000e+00
-3.656106903972133892e-02
1.828053451986078048e-02
3.656106903972144995e-02
4.387328284766565112e-01
1.828053451986078048e-02
-3.656106903972133892e-02
-1.828053451986066946e-02
0.000000000000000000e+00
-2.437404602648085561e-02
2.437404602648096663e-02
1.828053451986078048e-02
1.767118336919866195e-01
1.462442761588854667e-01
9.140267259930345833e-02
1.584312991721259500e-01
1.767118336919866195e-01
1.828053451986069167e-01
2.132729027317080694e-01
2.132729027317080694e-01
2.010858797184675861e-01
2.193664142383282556e-01
2.742080177979102640e-01
2.132729027317080694e-01
2.010858797184675861e-01
1.828053451986078048e-02
-3.838912249170742808e-01
-6.641927542216047309e-01
-4.448263399832765863e-01
-3.717042019038338529e-01
-2.803015293045304501e-01
-1.767118336919865085e-01
-1.828053451986066946e-02
1.035896956125439416e-01
2.803015293045305611e-01
3.534236673839732390e-01
3.777977134104542056e-01
4.082652709435552474e-01
4.021717594369351723e-01
3.838912249170745028e-01
4.021717594369351723e-01
4.082652709435552474e-01
4.204522939567958417e-01
2.681145062912900778e-01
-2.681145062912899668e-01
-4.021717594369350057e-01
-2.394750022101749476e+00
-3.308776748094783393e+00
-2.126635515810459509e+00
2.169290096356800923e+00
7.068473347679464780e+00
5.752274862249494802e+00
3.905940875743565854e+00
1.901175590065511400e+00
-7.312213807944267785e-02
-5.971641276487822392e-01
-5.057614550494788919e-01
-2.498339717714293529e-01
-3.656106903972133892e-02
3.656106903972133892e-02
1.218702301324045001e-01
1.523377876655056529e-01
7.312213807944267785e-02
1.218702301324045001e-01
7.312213807944267785e-02
6.702862657282249170e-02
3.656106903972133892e-02
1.401507646522651696e-01
1.706183221853663778e-01
1.035896956125438306e-01
7.921564958606297502e-02
6.093511506620225004e-02
4.874809205296182224e-02
0.000000000000000000e+00
0.000000000000000000e+00
-2.924885523177709334e-01
-1.157767186257843695e-01
-1.218702301324045834e-01
-1.645248106787461639e-01
-2.315534372515686834e-01
-3.473301558773529973e-01
-3.168625983442518446e-01
-3.595171788905934251e-01
-3.168625983442518446e-01
-2.315534372515686834e-01
-2.193664142383282278e-01
-1.462442761588854945e-01
-4.265458054634158058e-02
-4.265458054634158058e-02
0.000000000000000000e+00
1.157767186257843695e-01
1.218702301324045556e-01
1.096832071191641278e-01
2.071793912250877168e-01
2.132729027317080139e-01
1.767118336919866750e-01
1.767118336919866750e-01
1.462442761588854667e-01
1.157767186257843695e-01
9.140267259930345833e-02
7.312213807944273336e-02
7.921564958606297502e-02
1.218702301324048332e-02
4.265458054634163609e-02
0.000000000000000000e+00
-1.218702301324042780e-02
3.656106903972133892e-02
0.000000000000000000e+00
-4.265458054634158058e-02
6.093511506620213902e-03
3.656106903972136668e-02
0.000000000000000000e+00
0.000000000000000000e+00
0.000000000000000000e+00
-6.093511506620241658e-03
-2.437404602648089724e-02
3.046755753310113890e-02
0.000000000000000000e+00
-3.656106903972136668e-02
2.437404602648091112e-02
0.000000000000000000e+00
0.000000000000000000e+00
1.218702301324045556e-02
0.000000000000000000e+00
-4.265458054634158058e-02
2.437404602648091112e-02
0.000000000000000000e+00
1.828053451986066946e-02
0.000000000000000000e+00
-1.828053451986069722e-02
0.000000000000000000e+00
0.000000000000000000e+00
1.828053451986069722e-02
0.000000000000000000e+00
0.000000000000000000e+00
0.000000000000000000e+00
-5.484160355958200839e-02
0.000000000000000000e+00
0.000000000000000000e+00
5.484160355958200839e-02
0.000000000000000000e+00
0.000000000000000000e+00
0.000000000000000000e+00
0.000000000000000000e+00
-8.530916109268321668e-02
6.093511506620225004e-02
0.000000000000000000e+00
-4.265458054634163609e-02
0.000000000000000000e+00
4.265458054634163609e-02
-3.046755753310104176e-02
-2.437404602648085561e-02
2.437404602648085561e-02
0.000000000000000000e+00
5.484160355958200839e-02
0.000000000000000000e+00
0.000000000000000000e+00
-9.140267259930334731e-02
-7.921564958606297502e-02
1.218702301324048332e-02
-1.828053451986066946e-02
4.874809205296182224e-02
0.000000000000000000e+00
-4.265458054634152507e-02
-1.828053451986078048e-02
4.265458054634152507e-02
4.874809205296182224e-02
-7.921564958606297502e-02
-4.265458054634160279e-01
-8.348110764069712753e-01
-8.104370303804903086e-01
-5.910706161421620530e-01
-5.606030586090609003e-01
-4.631068745031372558e-01
-3.777977134104542056e-01
-2.254599257449484417e-01
-6.093511506620230556e-02
2.437404602648096663e-02
7.921564958606297502e-02
6.093511506620186147e-03
1.828053451986066946e-02
7.312213807944267785e-02
2.681145062912900778e-01
3.290496213574923279e-01
2.620209947846697807e-01
1.523377876655057639e-01
-2.681145062912899668e-01
-5.240419895693395613e-01
-1.712276733360283965e+00
-3.193000029468999301e+00
-2.297253837995826053e+00
1.102925582698261131e+00
5.624311120610470560e+00
5.904612649915001121e+00
4.228896985594437830e+00
2.632396970859938179e+00
5.423225240892002308e-01
-7.068473347679464780e-01
-9.079332144864138421e-01
-6.154446621686429086e-01
-3.656106903972136113e-01
-2.924885523177709334e-01
-2.315534372515686279e-01
-1.462442761588854667e-01
-1.401507646522651696e-01
-1.340572531456449834e-01
-1.279637416390247973e-01
-1.949923682118472890e-01
-1.767118336919866195e-01
-7.921564958606297502e-02
-1.096832071191640168e-01
-9.749618410592364448e-02
-1.218702301324045001e-01
-8.530916109268316116e-02
-1.706183221853663223e-01
-3.107690868376316029e-01
-3.046755753310113057e-01
-3.290496213574922724e-01
-3.412366443707326447e-01
-3.351431328641125695e-01
-4.326393169700362140e-01
-4.387328284766562891e-01
-4.509198514898968835e-01
-4.265458054634159168e-01
-2.681145062912899668e-01
-4.570133629965169586e-01
-4.021717594369349502e-01
-3.351431328641125695e-01
-2.559274832780495945e-01
-2.010858797184674751e-01
-1.340572531456449834e-01
-1.828053451986066946e-02
1.035896956125438306e-01
8.530916109268327219e-02
6.093511506620297169e-03
1.828053451986066946e-02
1.218702301324048332e-02
4.874809205296182224e-02
1.157767186257842584e-01
7.312213807944267785e-02
2.437404602648085561e-02
5.484160355958206390e-02
4.265458054634152507e-02
3.046755753310115278e-02
6.093511506620241658e-03
-2.681145062912900223e-01
-3.046755753310109727e-02
2.620209947846697807e-01
2.437404602648091112e-02
-2.559274832780495945e-01
0.000000000000000000e+00
3.046755753310109727e-02
1.096832071191640723e-01
9.749618410592364448e-02
-2.803015293045304501e-01
5.484160355958206390e-02
3.046755753310115278e-02
6.093511506620241658e-03
1.218702301324042780e-02
-1.096832071191641278e-01
-3.046755753310115278e-02
1.828053451986072497e-02
1.218702301324048332e-02
-3.046755753310109727e-02
2.437404602648091112e-02
-7.921564958606291951e-02
-1.828053451986068612e-01
-6.702862657282243619e-02
-1.828053451986066946e-02
-1.096832071191640723e-01
-1.035896956125438861e-01
0.000000000000000000e+00
0.000000000000000000e+00
0.000000000000000000e+00
1.218702301324048332e-02
7.312213807944273336e-02
1.828053451986066946e-02
6.093511506620241658e-03
-1.218702301324048332e-02
4.265458054634158058e-02
7.921564958606297502e-02
0.000000000000000000e+00
-2.437404602648091112e-02
-6.093511506620241658e-03
6.093511506620225004e-02
-1.828053451986066946e-02
-2.437404602648091112e-02
6.093511506620241658e-03
7.312213807944273336e-02
8.530916109268316116e-02
8.530916109268316116e-02
1.828053451986066946e-02
3.046755753310115278e-02
7.312213807944273336e-02
1.157767186257843139e-01
1.157767186257843139e-01
1.645248106787461362e-01
8.530916109268316116e-02
1.157767186257843139e-01
1.523377876655057084e-01
1.949923682118472890e-01
-6.093511506620241658e-03
-4.387328284766564557e-01
-6.093511506620228335e-01
-5.788835931289217918e-01
-5.362290125825801557e-01
-3.595171788905934807e-01
-2.071793912250877168e-01
-1.157767186257843695e-01
-6.093511506620241658e-03
1.706183221853663778e-01
2.437404602648091112e-01
2.620209947846697807e-01
3.107690868376316029e-01
2.803015293045304501e-01
2.437404602648091112e-01
3.168625983442518446e-01
3.777977134104540946e-01
3.290496213574922724e-01
2.315534372515686279e-01
-1.401507646522652251e-01
-3.777977134104541501e-01
-2.230225211423003451e+00
-2.650677505379799292e+00
-1.139486651737982692e+00
3.089410333856455360e+00
6.910042048507338386e+00
5.819303488822317405e+00
4.411702330793045412e+00
2.425217579634850296e+00
1.584312991721258945e-01
-7.251278692878071475e-01
-7.677824498341485615e-01
-5.484160355958205280e-01
-2.742080177979103195e-01
-2.132729027317079584e-01
-1.157767186257843139e-01
-8.530916109268321668e-02
-1.035896956125438861e-01
-9.140267259930340282e-02
0.000000000000000000e+00
-9.749618410592364448e-02
-9.749618410592364448e-02
-1.279637416390247973e-01
-1.584312991721258945e-01
-1.279637416390247973e-01
-1.157767186257843139e-01
-1.035896956125438861e-01
-1.279637416390247973e-01
-1.706183221853663778e-01
-3.290496213574923279e-01
-2.803015293045305056e-01
-2.742080177979102640e-01
-3.656106903972137223e-01
-3.838912249170743918e-01
-4.082652709435552474e-01
-5.057614550494788919e-01
-5.362290125825800446e-01
-5.301355010759598585e-01
-5.057614550494788919e-01
-4.448263399832765863e-01
-3.595171788905934251e-01
-2.620209947846697807e-01
-2.132729027317079584e-01
-1.035896956125438861e-01
0.000000000000000000e+00
0.000000000000000000e+00
0.000000000000000000e+00
0.000000000000000000e+00
0.000000000000000000e+00
0.000000000000000000e+00
8.530916109268318892e-02
7.312213807944273336e-02
5.484160355958203614e-02
0.000000000000000000e+00
-1.828053451986066946e-02
-7.312213807944273336e-02
-5.484160355958206390e-02
-6.093511506620213902e-03
1.218702301324042780e-02
-6.093511506620241658e-03
3.046755753310115278e-02
1.828053451986066946e-02
-1.828053451986069722e-02
3.046755753310115278e-02
3.046755753310115278e-02
6.093511506620225004e-02
1.096832071191640723e-01
1.096832071191640723e-01
3.473301558773529418e-01
3.656106903972136668e-02
1.828053451986069722e-02
-2.437404602648091112e-02
-1.218702301324042780e-02
-1.218702301324042780e-02
1.218702301324048332e-02
-4.631068745031372558e-01
-3.656106903972133892e-02
0.000000000000000000e+00
-9.749618410592361673e-02
-7.921564958606294726e-02
-6.093511506620213902e-03
-4.874809205296179448e-02
-4.874809205296179448e-02
-2.437404602648088336e-02
-1.340572531456449834e-01
2.437404602648091112e-02
4.265458054634163609e-02
4.874809205296182224e-02
2.437404602648091112e-02
-6.093511506620241658e-03
3.046755753310115278e-02
0.000000000000000000e+00
-9.140267259930340282e-02
2.620209947846698362e-01
-3.656106903972133892e-02
-4.265458054634158058e-02
2.437404602648091112e-02
2.437404602648091112e-02
-1.218702301324048332e-02
1.218702301324042780e-02
4.265458054634158058e-02
4.265458054634158058e-02
5.484160355958206390e-02
3.046755753310115278e-02
0.000000000000000000e+00
1.218702301324042780e-02
6.093511506620225004e-02
4.874809205296182224e-02
5.484160355958206390e-02
5.484160355958206390e-02
4.265458054634158058e-02
2.437404602648091112e-02
-1.523377876655057084e-01
-4.082652709435552474e-01
-4.082652709435552474e-01
-4.021717594369350612e-01
-4.265458054634159168e-01
-2.681145062912900223e-01
-1.828053451986068334e-01
-1.523377876655057084e-01
-6.702862657282251946e-02
1.218702301324045556e-01
2.376469487581889251e-01
2.132729027317079584e-01
2.254599257449484417e-01
2.376469487581889251e-01
2.132729027317079584e-01
2.132729027317079584e-01
2.437404602648091112e-01
2.010858797184675306e-01
-1.584312991721259223e-01
-3.534236673839732390e-01
-1.566032457201398609e+00
-3.369711863160985921e+00
-2.492246206207672898e+00
1.121206117218121801e+00
6.270223340312214511e+00
6.404280593457859716e+00
4.137494312995134926e+00
2.144916050330320179e+00
1.340572531456450389e-01
-7.495019153142880031e-01
-7.190343577811868503e-01
-4.204522939567956752e-01
-1.706183221853663778e-01
-6.093511506620230556e-02
1.218702301324042780e-02
1.828053451986066946e-02
1.828053451986066946e-02
-4.265458054634158058e-02
0.000000000000000000e+00
0.000000000000000000e+00
-3.656106903972139444e-02
6.093511506620186147e-03
-1.218702301324048332e-02
0.000000000000000000e+00
-1.218702301324042780e-02
-6.702862657282249170e-02
-7.312213807944273336e-02
-1.218702301324045556e-01
-9.749618410592364448e-02
-1.279637416390247695e-01
-2.071793912250877445e-01
-2.315534372515686279e-01
-2.863950408111506918e-01
-4.021717594369350057e-01
-3.838912249170743363e-01
-3.717042019038338529e-01
-3.412366443707327557e-01
-3.838912249170743363e-01
-2.803015293045304501e-01
-2.437404602648090834e-01
-1.888988567052270473e-01
-1.279637416390247695e-01
6.093511506620241658e-03
1.218702301324048332e-02
9.140267259930345833e-02
1.645248106787461917e-01
1.706183221853663778e-01
2.010858797184675306e-01
2.437404602648090557e-01
1.828053451986068056e-01
1.584312991721259500e-01
1.888988567052270473e-01
2.071793912250877723e-01
2.071793912250877723e-01
2.193664142383282001e-01
2.132729027317080139e-01
1.523377876655057084e-01
1.218702301324045556e-01
1.523377876655056529e-01
1.828053451986068612e-01
1.767118336919866195e-01
1.706183221853663778e-01
-1.157767186257843139e-01
1.462442761588854667e-01
1.767118336919866195e-01
2.132729027317080139e-01
1.888988567052271028e-01
1.706183221853663778e-01
1.645248106787461917e-01
1.767118336919866195e-01
1.584312991721259500e-01
4.692003860097576085e-01
9.749618410592364448e-02
1.584312991721259500e-01
1.645248106787461917e-01
9.749618410592364448e-02
7.312213807944273336e-02
7.921564958606297502e-02
7.312213807944273336e-02
-6.093511506620213902e-03
7.921564958606297502e-02
4.874809205296185000e-02
0.000000000000000000e+00
0.000000000000000000e+00
0.000000000000000000e+00
-3.656106903972136668e-02
-6.093511506620241658e-03
0.000000000000000000e+00
-8.530916109268318892e-02
-7.312213807944273336e-02
-7.312213807944273336e-02
-1.157767186257843417e-01
-1.401507646522652251e-01
-6.702862657282251946e-02
-9.140267259930340282e-02
-1.218702301324045556e-01
-2.437404602648091112e-02
-3.046755753310115278e-02
-7.312213807944273336e-02
-5.484160355958205002e-02
-7.921564958606294726e-02
1.340572531456449834e-01
3.168625983442518446e-01
4.326393169700362140e-01
4.935744320362384085e-01
5.240419895693395613e-01
5.849771046355418669e-01
3.351431328641125140e-01
2.254599257449484417e-01
3.656106903972136668e-02
6.093511506620227780e-02
0.000000000000000000e+00
0.000000000000000000e+00
-1.096832071191641000e-01
-1.949923682118472890e-01
-2.132729027317079862e-01
-2.193664142383281723e-01
-2.071793912250877445e-01
-9.140267259930340282e-02
0.000000000000000000e+00
-3.046755753310115278e-02
-6.093511506620225004e-02
-1.279637416390247973e-01
-6.154446621686429086e-01
-8.348110764069711642e-01
-3.010194684270392607e+00
-3.845005760677363771e+00
-2.486152694701052823e+00
2.242412234436243601e+00
6.446935174004201130e+00
5.258700430213257171e+00
3.290496213574922724e+00
1.206515278310805073e+00
-7.068473347679464780e-01
-1.139486651737982692e+00
-9.018397029797937670e-01
-6.215381736752632058e-01
-4.996679435428586502e-01
-3.656106903972136668e-01
-3.168625983442518446e-01
-3.777977134104541501e-01
-2.559274832780495390e-01
-2.071793912250877168e-01
-2.193664142383282001e-01
-2.681145062912900223e-01
-2.254599257449484417e-01
-2.132729027317079584e-01
-1.828053451986068056e-01
-1.949923682118472890e-01
-1.340572531456449834e-01
-1.949923682118472890e-01
-1.828053451986068056e-01
-1.645248106787461362e-01
-2.437404602648091112e-01
-2.559274832780495390e-01
-2.498339717714293529e-01
-3.168625983442518446e-01
-3.351431328641125140e-01
-3.656106903972136668e-01
-4.021717594369350057e-01
-4.082652709435553029e-01
-3.534236673839731835e-01
-3.046755753310113612e-01
-2.863950408111506918e-01
-2.254599257449484417e-01
-1.401507646522652251e-01
-1.035896956125438861e-01
0.000000000000000000e+00
1.340572531456450112e-01
1.584312991721259223e-01
1.523377876655057084e-01
1.706183221853663778e-01
1.645248106787461362e-01
2.193664142383282001e-01
1.706183221853663778e-01
1.584312991721259223e-01
1.462442761588854667e-01
1.218702301324045556e-01
1.523377876655057084e-01
6.702862657282251946e-02
6.093511506620227780e-02
4.265458054634160834e-02
1.828053451986069722e-02
7.921564958606297502e-02
9.749618410592364448e-02
1.401507646522652251e-01
1.279637416390247973e-01
1.340572531456450112e-01
6.093511506620227780e-02
6.093511506620227780e-02
7.312213807944273336e-02
7.921564958606297502e-02
9.140267259930341670e-02
8.530916109268318892e-02
4.265458054634160834e-02
6.093511506620227780e-02
4.874809205296182224e-02
6.702862657282251946e-02
6.702862657282251946e-02
2.437404602648091112e-02
3.046755753310115278e-02
1.218702301324045556e-02
3.656106903972136668e-02
7.921564958606297502e-02
6.702862657282251946e-02
4.874809205296182224e-02
5.484160355958206390e-02
8.530916109268318892e-02
1.218702301324045556e-02
6.093511506620227780e-02
8.530916109268318892e-02
3.656106903972136668e-02
0.000000000000000000e+00
3.046755753310115278e-02
-4.265458054634160834e-02
-2.437404602648091112e-02
-1.218702301324045556e-02
-3.046755753310115278e-02
-6.093511506620241658e-03
1.828053451986069722e-02
-1.828053451986069722e-02
-6.093511506620213902e-03
6.093511506620227780e-02
1.828053451986069722e-02
-2.437404602648088336e-02
-6.093511506620213902e-03
2.437404602648091112e-02
0.000000000000000000e+00
-1.828053451986069722e-02
-1.218702301324045556e-02
-5.484160355958203614e-02
-2.437404602648088336e-02
-1.218702301324045556e-02
-4.874809205296179448e-02
-4.874809205296179448e-02
1.218702301324045556e-02
6.093511506620213902e-03
1.828053451986066946e-02
-1.828053451986066946e-02
2.437404602648091112e-02
0.000000000000000000e+00
9.749618410592364448e-02
2.559274832780495945e-01
3.107690868376316029e-01
2.924885523177709334e-01
9.749618410592367224e-02
8.530916109268321668e-02
6.702862657282251946e-02
0.000000000000000000e+00
-6.093511506620225004e-02
0.000000000000000000e+00
0.000000000000000000e+00
1.828053451986069722e-02
-6.093511506620225004e-02
-6.093511506620186147e-03
-6.093511506620230556e-02
-7.921564958606297502e-02
-7.312213807944273336e-02
-5.484160355958206390e-02
-6.702862657282254721e-02
-6.702862657282254721e-02
-7.921564958606297502e-02
-4.448263399832766973e-01
-7.373148923010475198e-01
-1.834146963492688576e+00
-3.808444691637642876e+00
-3.186906517962379226e+00
3.290496213574922724e-01
5.435412263905242902e+00
5.843677534848797706e+00
3.790164157117781762e+00
2.010858797184675417e+00
3.046755753310109727e-02
-1.041990467632059048e+00
-9.749618410592364448e-01
-7.312213807944274446e-01
-5.484160355958205280e-01
-3.960782479303148751e-01
-3.168625983442519001e-01
-3.412366443707327557e-01
-2.985820638243912306e-01
-2.681145062912900778e-01
-2.681145062912900778e-01
-6.702862657282250280e-01
-2.437404602648091112e-01
-1.949923682118472890e-01
-2.315534372515686279e-01
-1.462442761588854667e-01
-2.559274832780495945e-01
-1.706183221853663778e-01
-2.193664142383282556e-01
-2.498339717714294084e-01
-2.376469487581889251e-01
-2.498339717714294084e-01
-3.412366443707327557e-01
-3.595171788905934251e-01
-3.595171788905934251e-01
-4.021717594369350612e-01
-4.204522939567957307e-01
-4.265458054634159168e-01
-3.960782479303148751e-01
-3.960782479303148751e-01
-3.473301558773530529e-01
-2.315534372515686279e-01
-1.767118336919866195e-01
-8.530916109268321668e-02
0.000000000000000000e+00
0.000000000000000000e+00
0.000000000000000000e+00
2.437404602648091112e-02
4.265458054634159446e-02
-2.437404602648091112e-02
2.437404602648091112e-02
