1815
1815
1810
1808
1802
1808
1808
1803
1808
1807
1802
1805
1803
1803
1799
1801
1804
1808
1809
1813
1814
1817
1823
1822
1822
1821
1821
1828
1852
1856
1871
1882
1894
1899
1904
1907
1904
1901
1900
1850
1893
1898
1894
1890
1887
1891
1887
1885
1883
1884
1881
1895
1889
1894
1901
1897
1899
1905
1906
1907
1904
1905
1901
1903
1905
1901
1901
1908
1909
1907
1903
1911
1904
1915
1968
1899
1872
1904
1931
1904
1914
1907
1903
1904
1891
1899
1899
1898
1946
1900
1895
1900
1898
1889
1894
1899
1903
1897
1895
1903
1899
1890
1898
1897
1894
1891
1891
1894
1895
1899
1901
1895
1892
1894
1886
1899
1903
1902
1916
1914
1883
1850
1856
1857
1871
1859
1865
1877
1895
1904
1886
1875
1888
1887
1890
1899
1895
1883
1839
1795
1648
1323
1388
1857
2704
2884
2535
2248
1929
1766
1744
1795
1828
1840
1852
1854
1849
1863
1866
1856
1860
1872
1861
1856
1865
1858
1856
1854
1852
1840
1851
1846
1840
1839
1840
1823
1829
1843
1843
1857
1872
1886
1904
1914
1923
1927
1925
1926
1920
1922
1931
1929
1920
1920
1918
1914
1909
1917
1911
1909
1915
1909
1917
1920
1915
1909
1919
1920
1917
1923
1931
1932
1927
1928
1929
1928
1930
1929
1927
1924
1923
1917
1920
1921
1920
1925
1919
1919
1919
1920
1918
1903
1907
1906
1906
1905
1904
1904
1914
1911
1904
1915
1919
1907
1907
1915
1909
1910
1920
1917
1907
1907
1907
1908
1910
1909
1911
1905
1910
1905
1907
1917
1906
1907
1914
1907
1904
1914
1909
1902
1902
1909
1920
1916
1936
1921
1889
1845
1860
1872
1872
1872
1877
1902
1915
1911
1903
1895
1897
1899
1903
1898
1891
1898
1854
1799
1664
1331
1385
1855
2683
2864
2555
2298
1973
1767
1744
1778
1808
1833
1855
1854
1854
1850
1856
1842
1845
1846
1849
1842
1851
1840
1840
1844
1842
1839
1833
1823
1821
1816
1805
1806
1814
1831
1826
1840
1845
1863
1879
1897
1853
1905
1915
1907
1908
1915
1910
1907
1911
1904
1893
1904
1893
1904
1905
1905
1903
1920
1910
1913
1904
1915
1913
1904
1901
1907
1899
1900
1902
1890
1898
1906
1904
1904
1911
1897
1892
1897
1904
1895
1904
1907
1898
1903
1903
1895
1890
1903
1915
1904
1902
1888
1899
1911
1917
1904
1910
1917
1904
1903
1892
1898
1904
1910
1914
1913
1909
1911
1918
1907
1891
1897
1911
1911
1903
1901
1903
1911
1906
1915
1922
1920
1919
1927
1918
1917
1929
1942
1926
1877
1859
1916
1894
1907
1904
1904
1904
1905
1920
1921
1920
1922
1920
1930
1927
1920
1891
1830
1776
1461
1501
1865
2628
2957
2752
2522
2162
1827
1735
1741
1779
1836
1842
1851
1851
1861
1851
1867
1880
1861
1871
1883
1872
1869
1874
1872
1860
1870
1860
1858
1855
1853
1847
1835
1843
1841
1851
1867
1874
1893
1918
1934
1947
1970
1981
1989
1999
2001
2007
2010
2009
2002
2000
2001
2000
2015
2022
2030
2033
2029
2032
2031
2032
2047
2051
2051
2071
2063
2045
2034
2046
2058
2053
2059
2055
2033
2038
2042
2037
2047
2059
2047
2047
2059
2047
2046
2058
2062
2059
2067
2074
2067
2065
2064
2067
2077
2087
2073
2071
2077
2082
2067
2074
2076
2073
2083
2082
2065
2074
2073
2066
2077
2080
2066
2064
2066
2074
2075
2086
2084
2068
2045
2034
2045
2033
2035
2032
2035
2054
2044
2063
2058
2046
2042
2045
2043
2039
2039
2032
1953
1915
1645
1481
1717
2465
3143
2950
2577
2239
1961
1872
1874
1917
1941
1963
1966
1963
1940
1968
1968
1968
1974
1961
1965
1966
1955
1958
1955
1942
1940
1937
1927
1920
1918
1946
1902
1901
1904
1905
1975
1921
1934
1946
1958
1966
1968
1979
1981
1983
1989
1979
1975
1973
1962
1946
1938
1935
1933
1930
1934
1937
1933
1934
1930
1923
1925
1936
1931
1935
1929
1931
1923
1924
1920
1920
1920
1919
1909
1905
1903
1901
1895
1904
1894
1899
1893
1922
1851
1878
1887
1815
1882
1885
1877
1874
1870
1867
1869
1866
1859
1856
1856
1856
1854
1858
1862
1857
1851
1854
1846
1846
1856
1850
1841
1840
1841
1845
1839
1833
1837
1851
1858
1854
1859
1831
1817
1828
1823
1808
1808
1825
1834
1840
1843
1840
1822
1819
1823
1813
1834
1827
1814
1744
1694
1360
1221
1441
2320
2885
2671
2363
1974
1727
1667
1684
1728
1749
1769
1770
1787
1778
1778
1782
1791
1786
1793
1801
1793
1782
1789
1795
1781
1782
1783
1766
1776
1765
1762
1754
1774
1769
1776
1792
1808
1813
1837
1842
1847
1856
1854
1853
1856
1850
1847
1887
1840
1836
1835
1840
1834
1827
1827
1834
1840
1842
1846
1839
1841
1845
1854
1840
1847
1840
1839
1842
1840
1840
1853
1855
1855
1854
1856
1849
1850
1854
1853
1854
1853
1856
1856
1856
1851
1856
1847
1844
1851
1853
1851
1850
1851
1853
1847
1853
1859
1859
1851
1857
1858
1854
1855
1859
1855
1856
1866
1863
1860
1866
1865
1854
1865
1860
1858
1867
1868
1861
1871
1866
1865
1866
1872
1872
1875
1890
1888
1884
1863
1826
1801
1808
1826
1836
1839
1856
1873
1891
1899
1901
1881
1891
1888
1895
1901
1905
1878
1802
1750
1430
1318
1533
2416
2943
2719
2450
2073
1817
1757
1776
1811
1842
1859
1856
1870
1872
1870
1878
1881
1874
1875
1879
1874
1872
1862
1867
1862
1857
1853
1850
1843
1839
1840
1842
1842
1843
1845
1866
1872
1882
1899
1910
1920
1923
1926
1926
1936
1953
1946
1939
1936
1936
1926
1939
1936
1925
1932
1931
1920
1921
1936
1936
1931
1936
1941
1943
1950
1937
1939
1947
1946
1936
1936
1938
1935
1930
1975
1929
1927
1931
1926
1918
1933
1931
1924
1926
1927
1921
1920
1921
1914
1930
1927
1921
1909
1914
1920
1919
1920
1925
1919
1914
1931
1930
1887
1920
1932
1936
1984
1890
1925
1936
1926
1925
1931
1935
1937
1929
1935
1922
1931
1927
1923
1926
1935
1925
1927
1905
1841
1788
1813
1822
1843
1857
1886
1903
1918
1941
1951
1940
1946
1943
1943
1938
1937
1930
1859
1835
1584
1359
1535
2195
2885
2836
2518
2225
1921
1806
1798
1833
1852
1867
1892
1901
1899
1902
1904
1904
1904
1895
1888
1882
1887
1884
1879
1877
1875
1870
1859
1867
1860
1855
1865
1850
1841
1856
1875
1886
1901
1920
1936
1943
1967
1970
1965
1965
1968
1968
1975
1985
1973
1977
1968
1967
1971
1971
1964
1962
1973
1983
1981
1972
1990
1993
1979
1984
1987
1988
1997
1990
1977
1997
1987
1981
1987
1982
1974
1981
1995
1983
1988
1989
1991
1986
2000
1987
1991
2000
1981
1977
1984
1969
1969
1983
1982
1990
1969
1973
1978
1977
1981
1981
1971
1986
2006
1991
1970
1968
1984
1990
1995
1976
1963
1982
1991
1984
1989
1979
1973
1981
1953
1882
1836
1841
1877
1903
1918
1927
1937
1958
1984
1988
1975
1981
1982
1983
1997
1979
1968
1920
1886
1631
1475
1665
2396
3015
2909
2687
2327
1997
1826
1787
1821
1857
1875
1898
1893
1896
1911
1915
1901
1904
1904
1899
1890
1895
1893
1881
1882
1862
1859
1856
1838
1825
1817
1821
1812
1810
1819
1825
1836
1847
1867
1872
1901
1921
1930
1939
1947
1953
1953
1963
1957
1954
1962
1947
1950
1949
1954
1939
1942
1952
1948
1949
1957
1949
1950
1951
1936
1932
1936
1936
1920
1920
1922
1920
1923
1925
1925
1919
1917
1917
1919
1917
1915
1912
1908
1910
1904
1904
1911
1901
1904
1904
1904
1902
1905
1907
1904
1904
1904
1899
1895
1894
1894
1899
1898
1898
1895
1899
1891
1882
1890
1902
1892
1898
1903
1868
1818
1772
1764
1786
1798
1811
1839
1857
1879
1895
1906
1904
1903
1904
1907
1904
1899
1899
1831
1795
1571
1323
1465
2097
2883
2879
2480
2169
1856
1728
1737
1779
1803
1823
1830
1829
1839
1835
1825
1829
1839
1833
1825
1822
1818
1819
1821
1811
1795
1793
1786
1781
1777
1776
1769
1770
1774
1776
1778
1795
1808
1819
1851
1853
1857
1871
1874
1875
1867
1872
1871
1867
1865
1855
1851
1856
1850
1840
1849
1841
1847
1847
1856
1855
1857
1861
1854
1853
1858
1859
1859
1865
1862
1857
1856
1862
1865
1869
1872
1862
1856
1861
1856
1855
1858
1857
1851
1858
1870
1863
1854
1872
1863
1862
1866
1866
1858
1859
1865
1865
1859
1859
1862
1868
1863
1858
1857
1865
1860
1857
1859
1870
1871
1868
1872
1872
1879
1858
1792
1734
1751
1777
1794
1817
1837
1856
1878
1889
1899
1897
1904
1905
1919
1915
1915
1903
1843
1807
1529
1300
1422
2019
2919
2850
2512
2218
1870
1761
1776
1823
1859
1869
1874
1882
1872
1883
1898
1890
1878
1888
1886
1874
1883
1889
1877
1874
1865
1860
1855
1850
1843
1846
1842
1840
1840
1853
1858
1875
1898
1902
1902
1920
1936
1935
1936
1930
1931
1935
1936
1932
1921
1924
1931
1931
1934
1936
1923
1926
1930
1923
1921
1927
1938
1934
1937
1941
1941
1947
1941
1937
1937
1936
1937
1938
1941
1943
1947
1947
1931
1936
1941
1942
1936
1939
1953
1941
1936
1943
1942
1942
1941
1943
1946
1941
1942
1937
1936
1937
1938
1943
1942
1937
1938
1938
1935
1940
1952
1942
1946
1945
1950
1948
1958
1967
1936
1886
1833
1818
1846
1868
1878
1887
1920
1942
1958
1974
1983
1981
1973
1982
1983
1982
1983
1954
1876
1790
1456
1389
1782
2645
3053
2735
2416
2079
1861
1822
1861
1894
1917
1932
1934
1937
1936
1936
1939
1943
1935
1937
1937
1935
1924
1931
1921
1916
1895
1915
1907
1901
1895
1886
1870
1881
1887
1890
1904
1914
1924
1942
1958
1964
1974
1971
1980
1984
1987
1983
1979
1978
1973
1973
1966
1962
1949
1953
1958
1955
1963
1968
1973
1970
1974
1968
1957
1962
1961
1966
1967
1968
1957
1956
1964
1959
1958
1957
1944
1939
1951
1948
1943
1945
1947
1937
1947
1954
1942
1936
1931
1921
1921
1936
1934
1927
1934
1920
1922
1931
1927
1926
1925
1918
1907
1915
1919
1922
1915
1920
1917
1906
1904
1915
1917
1921
1917
1913
1886
1839
1771
1770
1792
1823
1837
1840
1872
1892
1913
1921
1918
1914
1930
1919
1908
1913
1910
1867
1823
1671
1376
1410
1924
2706
2874
2608
2327
1986
1776
1728
1770
1819
1840
1847
1843
1843
1841
1851
1853
1850
1850
1841
1839
1838
1841
1830
1819
1825
1809
1808
1813
1803
1795
1793
1792
1777
1791
1795
1815
1821
1839
1841
1920
1879
1909
1904
1902
1895
1902
1904
1908
1907
1902
1889
1879
1883
1890
1895
1878
1883
1897
1890
1888
1904
1904
1891
1891
1894
1899
1891
1878
1874
1893
1904
1891
1879
1875
1882
1883
1879
1882
1882
1877
1878
1872
1880
1889
1873
1881
1883
1872
1872
1871
1875
1885
1879
1883
1872
1872
1885
1874
1875
1882
1882
1885
1889
1892
1886
1893
1890
1893
1900
1897
1888
1904
1904
1857
1791
1770
1789
1807
1835
1840
1852
1888
1912
1915
1904
1922
1921
1915
1918
1915
1921
1897
1834
1776
1473
1411
1702
2470
2961
2718
2482
2161
1853
1738
1745
1799
1824
1840
1856
1856
1857
1853
1853
1862
1863
1862
1859
1866
1857
1845
1844
1850
1835
1830
1823
1806
1797
1793
1787
1785
1792
1805
1808
1825
1840
1853
1872
1887
1904
1915
1929
1924
1925
1936
1923
1931
1927
1930
1882
1931
1930
1923
1936
1936
1935
1935
1943
1941
1939
1895
1951
1957
1942
1936
1936
1942
1942
1937
1936
1938
1930
1936
1936
1935
1932
1935
1936
1935
1936
1936
1919
1920
1936
1925
1929
1926
1921
1917
1920
1930
1920
1921
1926
1923
1929
1925
1909
1914
1915
1904
1907
1923
1920
1911
1913
1921
1920
1919
1921
1905
1857
1798
1793
1813
1827
1847
1856
1891
1914
1929
1953
1947
1941
1938
1948
1939
1938
1950
1901
1840
1732
1360
1365
1791
2665
2970
2631
2341
2000
1799
1790
1831
1867
1899
1915
1904
1909
1911
1907
1914
1903
1899
1901
1903
1899
1891
1891
1888
1927
1879
1872
1866
1858
1856
1855
1856
1861
1858
1869
1879
1899
1895
1914
1922
1933
1940
1936
1947
1946
1948
1945
1937
1935
1933
1930
1936
1930
1926
1929
1930
1926
1926
1927
1933
1925
1934
1931
1923
1931
1923
1926
1936
1936
1934
1927
1927
1923
1923
1933
1927
1926
1933
1927
1920
1926
1934
1922
1926
1937
1926
1926
1933
1922
1920
1927
1930
1920
1931
1936
1929
1930
1938
1936
1931
1927
1923
1935
1927
1923
1923
1926
1926
1918
1936
1926
1926
1931
1939
1945
1939
1904
1829
1792
1827
1841
1851
1862
1903
1920
1939
1958
1962
1958
1965
1971
1968
1971
1974
1966
1903
1871
1600
1369
1489
2096
2986
2915
2585
2283
1934
1826
1830
1877
1915
1926
1937
1951
1945
1943
1947
1945
1950
1958
1945
1943
1940
1939
1933
1936
1934
1927
1923
1923
1909
1905
1914
1912
1915
1923
1933
1925
1953
1976
1994
1993
2017
2021
2021
1971
2032
2064
2032
2033
2032
2026
2033
2030
2032
2033
2029
2023
2038
2044
2043
2054
2043
2043
2061
2065
2062
2064
2071
2075
2080
2073
2075
2067
2080
2087
2079
2075
2076
2073
2075
2082
2087
2078
2078
2081
2075
2087
2074
2075
2090
2084
2076
2074
2067
2064
2078
2079
2081
2078
2080
2073
2064
2064
2042
2041
2057
2058
2038
2032
2041
2035
2038
2034
2028
2032
2034
2032
2017
2023
2015
2005
2009
2006
2000
2009
1984
1923
1871
1887
1895
1909
1930
1941
1969
1984
2000
2000
1999
1990
1941
1968
1919
1982
1978
1935
1883
1781
1425
1455
1983
2815
2960
2628
2317
1993
1811
1786
1829
1863
1879
1891
1890
1888
1879
1884
1887
1876
1870
1859
1852
1863
1856
1843
1834
1835
1802
1803
1808
1801
1790
1792
1780
1788
1797
1802
1805
1819
1830
1833
1849
1865
1884
1878
1892
1882
1885
1879
1866
1854
1864
1854
1845
1860
1859
1846
1828
1854
1856
1851
1850
1858
1859
1861
1854
1850
1858
1851
1831
1834
1827
1831
1828
1825
1823
1818
1830
1814
1808
1815
1836
1838
1827
1823
1818
1824
1830
1825
1821
1838
1840
1839
1839
1831
1835
1823
1827
1822
1833
1837
1826
1827
1827
1820
1821
1829
1834
1836
1830
1822
1822
1814
1818
1824
1819
1817
1822
1826
1827
1829
1819
1830
1840
1828
1770
1712
1682
1706
1743
1763
1775
1794
1818
1838
1850
1856
1856
1869
1872
1873
1872
1869
1827
1755
1664
1373
1375
1696
2610
2905
2672
2439
2039
1775
1678
1687
1733
1767
1776
1783
1795
1792
1779
1790
1795
1787
1781
1779
1769
1779
1794
1767
1743
1755
1760
1749
1748
1740
1726
1716
1727
1722
1726
1742
1747
1759
1787
1803
1813
1838
1856
1865
1872
1880
1879
1877
1879
1871
1867
1878
1872
1870
1872
1879
1872
1879
1888
1889
1883
1887
1893
1883
1892
1899
1893
1891
1883
1887
1893
1881
1878
1881
1882
1872
1877
1808
1887
1901
1883
1878
1871
1877
1875
1878
1885
1883
1888
1887
1883
1887
1873
1877
1879
1879
1883
1886
1878
1883
1882
1869
1876
1881
1883
1886
1887
1899
1897
1892
1882
1878
1886
1890
1889
1892
1904
1904
1885
1853
1777
1758
1787
1793
1811
1835
1856
1872
1900
1905
1915
1916
1920
1911
1914
1923
1931
1891
1825
1754
1377
1345
1677
2514
3015
2689
2385
2055
1802
1776
1809
1855
1871
1877
1890
1895
1884
1882
1886
1889
1887
1882
1875
1871
1873
1873
1865
1871
1859
1852
1840
1833
1813
1822
1817
1821
1814
1834
1840
1895
1877
1840
1868
1869
1891
1893
1884
1898
1888
1891
1888
1891
1879
1873
1872
1867
1868
1872
1872
1872
1884
1879
1875
1891
1885
1876
1881
1889
1885
1877
1879
1878
1886
1893
1891
1892
1899
1887
1883
1883
1882
1872
1889
1891
1887
1884
1883
1881
1877
1890
1895
1892
1895
1888
1885
1891
1888
1889
1888
1895
1892
1891
1891
1890
1899
1903
1879
1903
1927
1920
1910
1911
1915
1904
1913
1923
1914
1921
1926
1926
1914
1870
1811
1795
1825
1846
1861
1874
1919
1932
1948
1975
1982
1979
1975
1982
1975
1984
1998
1957
1883
1773
1424
1417
1904
2779
3109
2754
2385
2047
1877
1859
1893
1935
1952
1958
1968
1973
1969
1975
1984
1981
1969
1967
1971
1973
1978
1975
1968
1968
1967
1963
1947
1945
1939
1927
1938
1936
1939
1951
1964
1966
1978
1990
2000
2013
2025
2027
2015
2023
2027
2023
2018
2021
2036
2003
2011
2007
2005
2011
2013
2011
2014
2015
2005
2016
2015
2013
2029
2016
2011
2018
2021
2007
2010
2006
2009
2000
2013
2014
2001
2001
2000
2000
1999
2009
2003
1989
1995
2000
1995
1999
2000
1990
1993
1996
1989
1997
1990
1984
1987
1981
1983
1975
1975
1930
1959
1959
1962
1955
1954
1962
1947
1941
1946
1936
1946
1911
1938
1936
1939
1937
1923
1904
1820
1776
1810
1817
1859
1872
1887
1911
1934
1937
1941
1929
1935
1937
1935
1921
1925
1901
1834
1776
1399
1359
1670
2463
2975
2693
2432
2105
1806
1753
1764
1805
1848
1866
1845
1850
1854
1858
1855
1862
1856
1853
1850
1840
1838
1830
1828
1814
1824
1815
1813
1809
1799
1777
1776
1783
1779
1791
1791
1806
1826
1836
1839
1861
1873
1874
1882
1885
1903
1885
1872
1879
1878
1879
1877
1878
1885
1893
1881
1872
1890
1902
1886
1885
1892
1891
1892
1877
1886
1879
1879
1872
1866
1857
1869
1869
1870
1853
1859
1867
1878
1879
1878
1894
1871
1863
1871
1870
1875
1881
1875
1879
1883
1889
1880
1870
1877
1877
1879
1882
1879
1882
1884
1878
1885
1871
1873
1888
1881
1886
1879
1887
1897
1887
1872
1883
1889
1881
1877
1889
1874
1825
1785
1763
1767
1790
1818
1822
1861
1877
1894
1906
1909
1905
1904
1906
1911
1904
1916
1885
1810
1712
1424
1446
1904
2721
2977
2736
2439
2090
1819
1729
1738
1775
1809
1823
1840
1832
1843
1849
1853
1861
1856
1862
1853
1849
1843
1849
1839
1823
1826
1825
1811
1808
1807
1792
1778
1785
1779
1776
1792
1809
1822
1840
1863
1879
1902
1906
1917
1923
1936
1936
1939
1949
1946
1939
1936
1939
1931
1937
1947
1947
1949
1956
1953
1955
1965
1966
1955
1959
1957
1949
1946
1947
1937
1936
1944
1936
1924
1935
1927
1925
1932
1937
1935
1936
1941
1943
1936
1945
1945
1947
1943
1946
1932
1946
1978
1943
1948
1953
1945
1950
1939
1943
1938
1947
1947
1938
1938
1943
1939
1945
1955
1947
1946
1949
1949
1952
1957
1959
1955
1915
1852
1808
1841
1851
1872
1885
1906
1922
1945
1965
1967
1966
1973
1974
1964
1975
1970
1947
1877
1813
1479
1357
1673
2491
3058
2814
2439
2099
1870
1805
1831
1877
1902
1907
1915
1919
1910
1907
1913
1911
1910
1919
1914
1899
1902
1903
1888
1886
1888
1879
1863
1858
1848
1841
1840
1834
1843
1851
1856
1858
1880
1887
1904
1907
1923
1920
1922
1937
1933
1920
1927
1931
1923
1899
1917
1914
1910
1914
1906
1900
1909
1918
1919
1922
1911
1918
1920
1923
1918
1918
1923
1918
1910
1906
1905
1904
1911
1906
1915
1917
1911
1910
1909
1911
1914
1911
1906
1904
1905
1904
1904
1897
1900
1899
1899
1904
1895
1889
1894
1904
1898
1903
1910
1904
1903
1898
1904
1896
1903
1895
1898
1895
1902
1894
1890
1899
1904
1904
1904
1904
1866
1754
1759
1829
1793
1808
1826
1842
1874
1886
1902
1904
1914
1910
1911
1915
1911
1915
1898
1819
1770
1486
1310
1531
2291
2954
2747
2450
2139
1847
1749
1776
1811
1834
1857
1858
1864
1870
1872
1866
1870
1867
1853
1859
1860
1855
1850
1855
1851
1840
1838
1835
1819
1819
1809
1811
1814
1815
1814
1822
1841
1841
1862
1875
1886
1897
1908
1906
1907
1917
1918
1934
1918
1926
1920
1914
1915
1906
1900
1907
1917
1911
1921
1927
1920
1920
1921
1915
1911
1918
1917
1916
1922
1921
1915
1917
1917
1915
1915
1922
1919
1913
1916
1915
1911
1920
1920
1909
1918
1930
1914
1916
1913
1910
1914
1920
1907
1904
1917
1914
1915
1911
1903
1903
1910
1916
1907
1909
1915
1904
1904
1907
1904
1910
1904
1907
1904
1906
1919
1916
1909
1921
1881
1823
1781
1800
1810
1840
1863
1866
1902
1923
1935
1941
1955
1935
1943
1948
1950
1939
1923
1852
1783
1481
1329
1520
2396
2999
2796
2497
2154
1878
1778
1790
1838
1857
1869
1881
1871
1872
1882
1887
1887
1884
1876
1873
1874
1875
1856
1856
1840
1839
1842
1837
1828
1823
1808
1805
1796
1806
1798
1808
1835
1847
1858
1862
1871
1887
1904
1915
1917
1910
1925
1920
1919
1919
1926
1915
1921
1920
1917
1918
1925
1913
1920
1921
1920
1921
1918
1912
1913
1927
1924
1907
1905
1904
1899
1911
1923
1909
1904
1909
1898
1902
1904
1902
1891
1904
1917
1910
1915
1910
1904
1904
1909
1897
1903
1920
1920
1917
1908
1914
1913
1915
1906
1901
1907
1938
1920
1904
1905
1913
1907
1904
1933
1916
1911
1914
1911
1919
1920
1906
1911
1865
1802
1766
1808
1821
1823
1856
1886
1904
1925
1937
1931
1926
1938
1941
1937
1946
1947
1904
1841
1779
1471
1436
1842
2630
3013
2805
2514
2165
1879
1770
1750
1802
1843
1840
1857
1863
1865
1869
1872
1870
1868
1866
1861
1862
1869
1871
1856
1856
1850
1840
1821
1826
1821
1812
1809
1808
1777
1813
1840
1842
1856
1862
1876
1900
1911
1920
1948
1954
1959
1962
1957
1959
1948
1968
1958
1950
1955
1962
1966
1965
1981
1969
1966
1966
1966
1960
1968
1968
1951
1961
1953
1940
1937
1934
1939
1928
1932
1928
1924
1931
1931
1926
1931
1935
1935
1935
1933
1936
1933
1942
1931
1933
1936
1946
1936
1940
1946
1943
1935
1936
1931
1934
1929
1943
1934
1938
1941
1939
1941
1937
1933
1941
1936
1937
1895
1843
1795
1807
1830
1843
1856
1869
1899
1911
1937
1942
1933
1941
1950
1941
1938
1958
1938
1861
1814
1529
1382
1598
2454
3091
2877
2547
2143
1869
1780
1796
1842
1863
1882
1888
1901
1899
1899
1898
1903
1901
1895
1899
1889
1889
1893
1886
1886
1875
1873
1859
1861
1850
1840
1836
1833
1839
1841
1842
1856
1863
1887
1898
1907
1920
2009
1927
1938
1947
1943
1943
1941
1933
1932
1935
1934
1936
1934
1936
1935
1931
1935
1936
1943
1952
1941
1946
1950
1951
1948
1939
1943
1936
1935
1935
1933
1924
1936
1934
1925
1936
1930
1923
1920
1914
1914
1919
1922
1919
1909
1920
1910
1911
1917
1920
1913
1920
1913
1903
1914
1904
1900
1898
1913
1909
1904
1914
1909
1907
1915
1909
1907
1907
1905
1904
1908
1910
1920
1888
1823
1776
1781
1792
1810
1829
1847
1873
1895
1911
1931
1925
1922
1919
1920
1917
1930
1918
1851
1819
1559
1318
1448
2047
2935
2877
2541
2233
1877
1771
1779
1806
1856
1876
1882
1910
1891
1887
1887
1824
1898
1886
1890
1886
1882
1890
1885
1875
1872
1871
1863
1858
1857
1853
1847
1845
1851
1863
1872
1881
1883
1898
1914
1927
1941
1952
1950
1946
1946
1959
1958
1962
1958
1953
1953
1953
1954
1965
1959
1965
1968
1975
1971
1971
1973
1980
1987
1989
1986
1983
1996
1997
2003
2000
2011
2006
2010
2019
2019
2022
2031
2022
2015
2029
2022
2015
2025
2032
2024
2026
2033
2025
2023
2029
2029
2023
2032
2035
2101
2032
2023
2026
2029
2025
2033
2032
2058
2053
2044
2055
2058
2059
2064
2064
2062
2065
2074
2064
2062
2032
1966
1920
1956
1968
1983
2000
2026
2046
2075
2087
2091
2096
2095
2092
2095
2096
2098
2073
1985
1963
1636
1486
1680
2384
3183
2967
2656
2327
2003
1915
1930
1968
2000
2009
2023
2028
2015
2023
2015
2013
2006
2013
2015
2002
1990
1987
1985
1977
1974
1926
1955
1954
1947
1936
1917
1922
1915
1922
1936
1938
1950
1966
1966
1973
1990
1991
1989
2005
2006
2000
2000
1995
1990
1986
1983
1984
1973
1978
1967
1965
1971
1959
1947
1954
1953
1945
1945
1941
1934
1930
1935
1922
1904
1910
1904
1904
1906
1895
1886
1893
1889
1889
1886
1875
1877
1877
1878
1872
1865
1858
1847
1855
1850
1856
1847
1841
1841
1839
1825
1839
1826
1818
1824
1829
1813
1814
1818
1814
1822
1811
1807
1792
1792
1805
1799
1807
1799
1792
1794
1802
1803
1782
1725
1658
1662
1697
1701
1717
1731
1756
1783
1797
1805
1793
1795
1804
1827
1837
1826
1808
1739
1697
1502
1259
1406
1964
2706
2752
2477
2215
1872
1667
1634
1682
1723
1735
1745
1759
1760
1761
1762
1751
1754
1770
1765
1767
1763
1769
1755
1732
1733
1729
1727
1728
1712
1711
1709
1713
1739
1708
1717
1728
1741
1750
1761
1780
1807
1821
1808
1811
1813
1821
1840
1833
1825
1834
1836
1838
1834
1790
1829
1877
1839
1793
1835
1840
1853
1851
1789
1845
1841
1838
1840
1820
1834
1843
1842
1835
1844
1827
1810
1829
1837
1822
1823
1840
1840
1840
1842
1853
1845
1843
1840
1849
1855
1842
1838
1841
1852
1839
1838
1843
1854
1856
1856
1845
1847
1854
1861
1861
1869
1856
1861
1867
1874
1841
1770
1742
1747
1754
1783
1808
1823
1841
1870
1882
1885
1893
1888
1882
1894
1904
1897
1881
1822
1783
1479
1410
1658
2352
2979
2800
2571
2245
1873
1728
1721
1757
1802
1817
1834
1840
1837
1841
1856
1840
1840
1840
1835
1840
1842
1844
1840
1833
1807
1815
1822
1810
1807
1803
1787
1782
1783
1787
1797
1811
1827
1835
1853
1870
1889
1907
1930
1931
1939
1953
1954
1956
1949
1947
1939
1942
1951
1955
1952
1958
1956
1950
1958
1958
1963
1971
1971
2010
1960
1957
1950
1953
1953
1957
1879
1949
1955
1939
1942
1954
1947
1947
1951
1933
1959
1962
1963
1959
1955
1961
1956
1941
2000
1953
1952
1963
1965
1959
1963
1968
1968
1970
1966
1961
1963
1971
1969
1970
1970
1968
1965
1936
1894
1894
1895
1891
1917
1931
1936
1950
1981
2000
1996
1998
2000
1996
1996
2001
1994
1935
1904
1706
1410
1554
2147
2992
3014
2642
2315
1985
1840
1845
1894
1936
1955
1967
1968
1968
1958
1965
1965
1959
1967
1964
1967
1965
1956
1955
1948
1952
1947
1934
1929
1920
1901
1904
1906
1911
1904
1921
1927
1936
1946
1968
1969
1982
1994
1995
1998
2005
1995
1990
1993
1993
1993
1995
1994
1984
1979
1983
1986
1984
1983
1936
1979
1984
1990
1986
1983
1982
1984
1981
2032
1971
1981
1982
1971
1967
1968
1967
1954
1968
1962
1953
1953
1953
1947
1952
1953
1939
1941
1941
1934
1930
1942
1937
1927
1938
1936
1929
1930
1925
1959
1988
2006
2015
2019
2026
1985
1966
1933
1935
1920
1907
1889
1875
1872
1871
1873
1874
1885
1872
1867
1856
1776
1740
1383
1246
1469
2245
2935
2740
2417
2075
1761
1690
1729
1775
1795
1817
1825
1815
1835
1843
1841
1833
1840
1842
1847
1845
1855
1845
1847
1850
1837
1835
1836
1825
1822
1817
1811
1810
1819
1827
1830
1840
1854
1860
1877
1901
1905
1904
1907
1906
1915
1907
1905
1903
1899
1904
1890
1889
1886
1882
1892
1895
1902
1900
1901
1889
1889
1891
1892
1894
1893
1886
1889
1887
1890
1890
1883
1884
1881
1885
1892
1890
1887
1888
1893
1881
1889
1893
1885
1879
1884
1872
1875
1876
1873
1875
1878
1872
1874
1885
1878
1871
1874
1879
1875
1872
1873
1866
1871
1873
1867
1867
1877
1875
1877
1871
1877
1873
1889
1915
1923
1920
1888
1886
1883
1872
1862
1872
1872
1875
1862
1871
1861
1858
1859
1862
1856
1856
1854
1794
1746
1566
1242
1344
1921
2759
2826
2489
2197
1872
1696
1707
1747
1777
1802
1815
1811
1818
1823
1823
1757
1827
1835
1829
1843
1825
1839
1831
1826
1828
1826
1811
1808
1808
1801
1798
1797
1802
1802
1810
1829
1838
1853
1867
1876
1879
1898
1904
1894
1902
1919
1919
1898
1911
1905
1899
1904
1907
1897
1904
1914
1905
1911
1906
1919
1920
1917
1915
1908
1930
1930
1915
1915
1920
1920
1920
1923
1925
1904
1920
1920
1917
1909
1911
1920
1923
1921
1918
1918
1919
1931
1923
1929
1914
1909
1925
1931
1920
1925
1922
1909
1915
1934
1926
1920
1923
1922
1929
1927
1930
1921
1917
1973
1979
1956
1916
1947
1936
1935
1934
1925
1922
1918
1920
1922
1926
1910
1910
1919
1934
1931
1904
1839
1823
1548
1375
1554
2203
2959
2830
2585
2295
1904
1763
1761
1795
1847
1861
1877
1882
1891
1899
1888
1891
1905
1899
1899
1903
1902
1885
1894
1899
1889
1887
1883
1863
1869
1878
1863
1855
1858
1861
1875
1884
1889
1898
1895
1942
1949
1968
1975
1987
1983
1989
1987
1995
1980
1957
1951
1969
1986
1978
1984
1985
1983
1981
1995
2000
1984
1971
1971
1975
1979
1984
1979
1968
1962
1967
1968
1959
1941
1947
1945
1953
1953
1945
1941
1947
1938
1929
1936
1936
1938
1925
1936
1936
1935
1932
1946
1934
1937
1938
1938
1934
1949
1954
1965
1978
1950
1930
1936
1923
1914
1920
1927
1917
1919
1920
1907
1904
1907
1934
1896
1898
1910
1893
1814
1771
1447
1379
1651
2412
3005
2779
2525
2191
1824
1711
1705
1744
1795
1807
1817
1830
1838
1823
1838
1783
1840
1838
1840
1851
1831
1838
1839
1830
1837
1819
1807
1805
1780
1781
1777
1782
1775
1779
1789
1794
1807
1837
1846
1863
1886
1902
1914
1924
1933
1923
1931
1939
1921
1923
1926
1933
1929
1929
1930
1930
1936
1947
1936
1931
1937
1931
1936
1936
1927
1926
1923
1927
1923
1922
1920
1905
1911
1917
1904
1903
1905
1904
1904
1913
1905
1897
1911
1915
1904
1906
1911
1914
1931
1962
1985
1998
2003
2002
1979
1959
1929
1921
1903
1890
1868
1867
1872
1870
1856
1856
1857
1854
1859
1858
1818
1751
1585
1270
1317
1803
2805
2979
2593
2255
1823
1690
1686
1738
1791
1809
1822
1823
1826
1828
1839
1841
1859
1840
1847
1849
1840
1843
1849
1845
1853
1840
1835
1836
1839
1826
1817
1817
1823
1827
1846
1851
1853
1863
1887
1897
1910
1915
1921
1921
1937
1941
1933
1931
1929
1925
1927
1929
1920
1930
1935
1920
1918
1914
1919
1925
1922
1930
1920
1935
1929
1930
1933
1934
1933
1927
1936
1936
1861
1934
1928
1920
1930
1923
1923
1930
1931
1920
1908
1920
1917
1916
1929
1927
1921
1925
1930
1919
1919
1919
1921
1919
1920
1917
1917
1919
1917
1916
1916
1922
1911
1914
1917
1919
1924
1927
1917
1909
1914
1913
1919
1918
1920
1909
1910
1920
1930
1941
1968
1968
1930
1920
1922
1904
1904
1900
1908
1904
1907
1901
1899
1901
1899
1899
1903
1906
1900
1856
1817
1686
1327
1361
1805
2665
2932
2580
2298
1966
1760
1744
1791
1835
1849
1870
1866
1871
1871
1875
1875
1879
1882
1877
1887
1879
1873
1872
1882
1876
1866
1869
1856
1858
1859
1855
1851
1856
1856
1874
1873
1886
1905
1913
1936
1936
1946
1943
1950
1952
1955
1959
1954
1949
1950
1947
1937
1950
1949
1950
1951
1943
1938
1941
1956
1950
1955
1965
1960
1946
1968
1962
1963
1960
1959
1947
1950
1984
1948
1956
1949
1956
1945
1950
1947
1961
1948
1951
1942
1945
1942
1936
1937
1935
1936
1931
1936
1937
1930
1930
1936
1945
1936
1946
1939
1939
1940
1939
1943
1947
1952
1942
1948
1951
1942
1942
1945
1937
1949
1949
1949
1947
1970
1983
1994
1997
1957
1950
1956
1943
1911
1921
1933
1936
1936
1935
1930
1920
1923
1922
1919
1921
1920
1892
1829
1776
1402
1333
1606
2413
2974
2689
2397
2079
1792
1744
1768
1814
1841
1857
1867
1870
1853
1856
1872
1872
1863
1867
1867
1859
1867
1870
1858
1852
1844
1845
1836
1834
1835
1826
1833
1823
1832
1839
1845
1856
1878
1895
1882
1904
1917
1916
1920
1923
1920
1935
1923
1924
1915
1925
1927
1909
1915
1913
1904
1910
1912
1917
1909
1918
1911
1919
1916
1919
1904
1914
1923
1920
1919
1904
1899
1910
1926
1927
1922
1927
1921
1910
1909
1904
1910
1918
1909
1907
1910
1908
1904
1906
1911
1919
1918
1909
1904
1905
1907
1910
1915
1927
1930
1920
1921
1930
1929
1924
1935
1936
1924
1924
1939
1941
1917
1908
1919
1917
1931
1937
1953
1968
1949
1917
1939
1942
1917
1927
1958
1937
1936
1942
1947
1936
1936
1936
1937
1936
1946
1923
1856
1829
1566
1430
1727
2465
3013
2857
2594
2256
1936
1792
1763
1808
1840
1857
1879
1898
1887
1886
1895
1902
1902
1902
1902
1901
1882
1888
1900
1887
1887
1874
1866
1874
1862
1847
1841
1846
1840
1850
1860
1866
1879
1895
1914
1933
1951
1966
1975
1975
1975
1984
1994
1986
1984
1982
1984
1980
1971
1971
1981
1972
1979
1977
1966
1977
1975
1984
1988
1983
1971
1967
1968
1962
1961
1966
1959
1947
1941
1949
1937
1948
1956
1942
1931
1937
1934
1931
1938
1945
1939
1954
1943
1936
1934
1936
1927
1936
1936
1929
1921
1925
1927
1920
1933
1936
1951
1970
1966
1930
1923
1932
1904
1901
1907
1906
1903
1908
1894
1893
1891
1895
1898
1898
1895
1877
1840
1793
1617
1350
1367
1885
2871
2998
2634
2311
1911
1735
1717
1747
1797
1817
1823
1840
1840
1839
1842
1845
1841
1847
1843
1844
1843
1840
1841
1840
1842
1839
1825
1820
1820
1795
1792
1795
1798
1797
1805
1813
1824
1842
1854
1861
1884
1900
1903
1907
1917
1911
1914
1923
1919
1919
1920
1911
1901
1910
1908
1904
1907
1914
1908
1904
1914
1909
1969
1901
1909
1902
1906
1909
1903
1904
1918
1919
1918
1929
1923
1919
1926
1917
1916
1918
1914
1907
1916
1935
1910
1907
1910
1907
1904
1904
1904
1899
1903
1890
1903
1897
1963
1896
1897
1902
1899
1904
1904
1902
1904
1936
1955
1951
1931
1902
1907
1904
1880
1876
1887
1883
1886
1875
1884
1879
1872
1876
1879
1875
1877
1863
1785
1747
1397
1264
1488
2275
2998
2733
2407
2066
1761
1712
1744
1783
1820
1841
1843
1847
1856
1846
1853
1856
1861
1861
1872
1872
1867
1870
1863
1856
1858
1854
1845
1840
1835
1839
1829
1838
1840
1844
1856
1873
1879
1889
1913
1918
1931
1927
1920
1925
1932
1921
1920
1921
1910
1904
1904
1908
1904
1904
1905
1904
1902
1905
1905
1903
1904
1915
1904
1911
1915
1908
1916
1920
1914
1911
1921
1920
1916
1917
1919
1905
1909
1908
1907
1906
1913
1916
1909
1915
1904
1903
1905
1892
1898
1904
1918
1913
1904
1910
1904
1902
1902
1904
1903
1903
1906
1904
1904
1914
1930
1963
1993
1937
1907
1921
1911
1885
1887
1966
1902
1904
1894
1889
1884
1889
1885
1886
1887
1893
1881
1819
1787
1535
1270
1411
2074
2889
2831
2486
2176
1860
1719
1739
1795
1822
1841
1851
1854
1852
1861
1869
1866
1859
1866
1872
1872
1872
1872
1866
1869
1867
1870
1866
1861
1861
1852
1898
1834
1843
1856
1862
1863
1888
1897
1910
1920
1932
1935
1936
1940
1936
1937
1937
1936
1927
1937
1935
1932
1935
1930
1922
1936
1937
1936
1930
1935
1941
1940
1942
1939
1936
1940
1941
1936
1900
1936
1931
1931
1935
1936
1927
1927
1932
1931
1931
1926
1970
1930
1904
1931
1957
1937
1937
1939
1970
1936
1942
1924
1886
1923
1931
1926
1922
1931
1936
1921
1908
1915
1919
1923
1929
1918
1919
1922
1926
1915
1919
1920
1919
1927
1941
1957
1955
1941
1914
1920
1911
1886
1891
1898
1891
1883
1881
1881
1892
1875
1875
1879
1878
1879
1869
1794
1782
1472
1313
1494
2167
2896
2730
2474
2177
1813
1703
1722
1794
1805
1818
1823
1831
1835
1831
1837
1850
1838
1843
1856
1850
1840
1844
1834
1824
1872
1821
1831
1827
1815
1808
1809
1808
1806
1820
1840
1840
1849
1863
1868
1872
1904
1911
1898
1902
1909
1918
1908
1908
1909
1918
1927
1926
1907
1918
1913
1919
1920
1926
1909
1906
1922
1926
1921
1921
1917
1914
1918
1920
1922
1913
1919
1918
1911
1913
1912
1918
1936
1919
1920
1932
1931
1920
1934
1937
1917
1902
1919
1920
1920
1927
1914
1906
1923
1945
1931
1911
1918
1923
1922
1920
1920
1915
1923
1923
1925
1938
1966
1958
1940
1918
1930
1927
1927
1932
1931
1924
1909
1915
1917
1915
1913
1917
1919
1913
1920
1921
1871
1833
1632
1393
1520
2030
2898
2899
2677
2407
1991
1775
1718
1742
1802
1835
1842
1840
1859
1862
1867
1866
1861
1859
1869
1863
1861
1857
1873
1872
1866
1866
1850
1839
1840
1830
1833
1820
1817
1811
1815
1841
1843
1855
1874
1904
1922
1946
1955
1968
1984
1995
1979
1987
1990
1984
1985
1994
1987
1977
2000
2002
2000
2005
2005
2000
1995
1996
1993
1997
1999
1990
1985
1995
1989
1983
1981
1985
1978
1979
1983
1974
1971
1979
1975
1978
1983
1982
1981
1985
1984
1982
1986
1984
1989
1990
1984
1975
1991
2022
2063
2079
2099
2110
2099
2074
2045
2019
2021
2011
1989
1971
1970
1967
1970
1961
1962
1969
1968
1970
1956
1911
1868
1661
1376
1456
2135
2999
3081
2674
2274
1946
1818
1810
1872
1911
1926
2010
1956
1948
1954
1921
1958
1963
1969
1974
1968
1969
1972
1973
1968
2013
1963
1953
1953
1942
1940
1943
1936
1934
1939
1943
1956
1967
1975
1989
2001
2022
2023
2015
2022
2042
2033
2034
2032
2017
2019
2018
2009
2007
2009
2007
2001
2015
2013
1998
1996
2000
1990
1997
1999
1983
1984
1990
1986
1983
1989
1999
1985
1983
1985
2034
1974
1970
1972
1931
1968
1961
1950
1947
1940
1937
1943
1937
1927
1930
1930
1922
1879
1921
1919
1857
1903
1921
1915
1919
1900
1910
1904
1903
1891
1895
1900
1887
1894
1891
1889
1885
1893
1885
1891
1894
1894
1883
1891
1886
1879
1873
1878
1877
1905
1930
1921
1910
1881
1890
1872
1851
1856
1866
1868
1867
1858
1847
1858
1853
1845
1851
1844
1843
1825
1759
1712
1408
1242
1467
2243
2888
2657
2362
2037
1777
1677
1714
1755
1779
1793
1799
1799
1797
1803
1808
1808
1808
1807
1810
1814
1816
1810
1818
1817
1808
1799
1797
1793
1785
1791
1786
1785
1793
1796
1805
1818
1833
1843
1855
1862
1871
1870
1869
1869
1867
1875
1874
1869
1862
1869
1857
1857
1861
1859
1852
1856
1857
1857
1851
1858
1854
1858
1863
1868
1871
1873
1871
1868
1872
1866
1867
1872
1875
1870
1870
1859
1857
1862
1876
1863
1858
1864
1859
1856
1869
1867
1853
1856
1865
1865
1855
1861
1857
1850
1854
1854
1850
1853
1859
1858
1854
1857
1863
1861
1858
1856
1856
1859
1855
1862
1863
1869
1872
1870
1886
1903
1928
1905
1877
1886
1872
1851
1856
1874
1873
1859
1869
1870
1862
1863
1860
1856
1860
1863
1853
1778
1767
1452
1269
1435
2122
2922
2769
2464
2143
1792
1707
1713
1756
1803
1813
1836
1847
1836
1840
1850
1855
1853
1845
1847
1840
1847
1851
1853
1847
1831
1840
1844
1837
1825
1805
1808
1827
1835
1836
1840
1842
1859
1882
1902
1920
1910
1921
1915
1926
1930
1931
1946
1941
1936
1949
1949
1927
1920
1927
1927
1968
1938
1927
1919
1936
1942
1942
1942
1924
1926
1952
1950
1936
1945
1937
1941
1930
1939
1939
1936
1938
1951
1940
1937
1952
1947
1950
1955
1946
1939
1935
1931
1925
1934
1930
1935
1945
1947
1942
1925
1933
1951
1942
1933
1933
1935
1949
1943
1934
1936
1939
1936
1934
1939
1944
1942
1971
1983
1963
1951
1931
1931
1919
1907
1913
1922
1926
1929
1925
1923
1920
1915
1904
1910
1905
1891
1883
1829
1792
1513
1395
1697
2428
2986
2829
2554
2211
1881
1743
1719
1749
1792
1825
1834
1838
1851
1855
1850
1862
1856
1840
1859
1862
1851
1847
1849
1848
1838
1841
1826
1823
1817
1809
1808
1806
1808
1814
1828
1839
1842
1851
1864
1885
1904
1920
1946
1946
1955
1952
1949
1953
1963
1948
1950
1956
1942
1948
1955
1957
1953
1962
1968
1967
1963
1968
1952
1954
1963
1950
1953
1958
1947
1941
1936
1930
1929
1925
1925
1917
1935
1933
1929
1920
1929
1979
1934
1936
1931
1926
1934
1923
1914
1923
1930
1958
1989
2019
2026
2027
2025
1993
1953
1941
1939
1932
1917
1904
1888
1890
1893
1887
1872
1886
1885
1883
1872
1798
1750
1455
1314
1520
2411
3077
2855
2486
2077
1782
1680
1702
1771
1794
1814
1838
1840
1840
1843
1845
1840
1843
1840
1854
1856
1853
1847
1847
1847
1840
1839
1845
1834
1822
1809
1808
1802
1811
1817
1822
1840
1846
1856
1873
1895
1904
1915
1926
1933
1926
1932
1936
1930
1931
1927
1919
1926
1929
1921
1918
1920
1923
1926
1934
1926
1920
1923
1925
1925
1925
1926
1922
1927
1933
1925
1919
1931
1935
1929
1933
1931
1919
1919
1920
1919
1914
1922
1920
1922
1919
1914
1911
1919
1920
1910
1914
1916
1903
1909
1904
1908
1917
1916
1917
1909
1916
1921
1917
1920
1915
1917
1914
1918
1920
1917
1908
1911
1906
1907
1911
1919
1914
1932
1936
1961
1958
1913
1909
1909
1882
1888
1872
1921
1951
1894
1890
1887
1885
1894
1899
1895
1895
1882
1821
1776
1495
1277
1426
2226
2928
2807
2480
2111
1838
1739
1745
1801
1831
1842
1854
1861
1852
1847
1851
1863
1859
1866
1872
1867
1873
1874
1872
1859
1859
1861
1851
1849
1842
1840
1831
1838
1837
1845
1863
1868
1875
1891
1898
1905
1915
1929
1925
1926
1929
1930
1925
1919
1914
1914
1911
1913
1914
1923
1922
1919
1920
1925
1918
1914
1921
1920
1920
1915
1917
1915
1923
1919
1914
1917
1920
1911
1919
1917
1915
1920
1919
1917
1904
1918
1906
1908
1916
1917
1913
1914
1917
1903
1903
1904
1901
1901
1902
1902
1898
1904
1908
1901
1900
1893
1904
1915
1906
1903
1904
1905
1904
1907
1921
1940
1951
1939
1905
1909
1910
1892
1881
1892
1903
1898
1894
1889
1879
1879
1891
1891
1877
1882
1885
1825
1779
1591
1291
1335
1808
2801
2928
2597
2289
1903
1710
1723
1734
1821
1840
1840
1845
1861
1863
1871
1871
1867
1862
1872
1875
1870
1869
1861
1855
1857
1854
1845
1840
1834
1840
1833
1833
1831
1837
1841
1853
1869
1883
1890
1903
1918
1935
1933
1924
1942
1947
1938
1942
1936
1934
1936
1939
1931
1934
1936
1936
1925
1935
1938
1936
1938
1941
1935
1935
1945
1941
1942
1933
1926
1925
1936
1935
1916
1910
1927
1934
1927
1930
1925
1923
1931
1929
1914
1918
1914
1904
1910
1918
1920
1920
1921
1904
1900
1911
1920
1910
1910
1904
1904
1910
1904
1904
1904
1920
1916
1901
1904
1902
1902
1904
1913
1923
1954
1955
1923
1904
1915
1905
1891
1901
1901
1890
1901
1899
1887
1887
1888
1894
1903
1891
1873
1878
1808
1754
1453
1340
1660
2417
2942
2749
2455
2137
1831
1715
1714
1735
1801
1824
1823
1827
1827
1843
1849
1852
1850
1853
1841
1841
1887
1840
1840
1837
1833
1830
1837
1825
1727
1789
1792
1811
1829
1815
1864
1844
1850
1858
1872
1892
1907
1855
1938
1927
1920
1936
1942
1945
1936
1946
1942
1922
1941
1941
1920
1938
1948
1950
1941
1943
1949
1943
1926
1920
1931
1935
1927
1913
1923
1936
1919
1914
1930
1920
1919
1922
1913
1915
1930
1920
1925
1935
1920
1922
1931
1932
1919
1943
1974
1995
2013
2027
2026
2007
1984
1962
1953
1946
1922
1914
1902
1901
1887
1891
1892
1881
1902
1913
1908
1857
1808
1649
1392
1488
2076
2894
3008
2735
2391
2027
1788
1709
1741
1798
1824
1831
1845
1849
1846
1856
1866
1863
1874
1881
1874
1870
1872
1873
1872
1862
1857
1846
1840
1838
1825
1818
1808
1808
1804
1811
1825
1840
1858
1877
1904
1933
1945
1952
1991
1999
2000
1999
1999
1993
1989
2000
1993
1993
1994
1994
1991
1993
1986
1990
1989
1990
1984
1982
1982
1968
1968
1965
1968
1962
1964
1915
1946
1950
1952
1937
1944
1947
1939
1945
1970
1872
1943
1946
1941
1937
1936
1938
1925
1946
1950
1946
1936
1943
1939
1939
1931
1938
1933
1936
1933
1933
1936
1946
1931
1936
1936
1937
1936
1941
1943
1953
1983
1984
1974
1947
1953
1936
1914
1918
1925
1925
1927
1916
1911
1913
1916
1906
1918
1920
1913
1898
1835
1792
1503
1303
1517
2259
2976
2819
2430
2107
1830
1739
1775
1815
1840
1854
1862
1858
1862
1872
1879
1872
1875
1882
1870
1872
1873
1872
1872
1872
1863
1856
1861
1859
1853
1852
1854
1843
1851
1858
1862
1867
1881
1890
1906
1920
1930
1936
1936
1936
1938
1942
1949
1933
1926
1927
1926
1921
1924
1925
1914
1914
1931
1921
1930
1926
1922
1926
1925
1920
1931
1934
1921
1920
1927
1921
1919
1932
1921
1917
1919
1919
1916
1919
1921
1915
1908
1911
1906
1965
1907
1911
1901
1898
1904
1902
1898
1899
1894
1893
1890
1893
1891
1900
1895
1887
1891
1894
1887
1909
1933
1941
1939
1907
1859
1904
1874
1870
1872
1886
1883
1870
1865
1872
1872
1869
1867
1871
1869
1872
1834
1758
1632
1302
1281
1671
2673
2943
2611
2320
1920
1738
1712
1754
1796
1821
1839
1842
1843
1849
1856
1856
1859
1850
1858
1863
1854
1862
1859
1927
1843
1842
1850
1840
1840
1839
1829
1821
1843
1840
1842
1869
1877
1886
1909
1918
1929
1939
1953
1955
1947
1956
1956
1955
1957
1954
1953
1957
1959
1954
1950
1959
1949
1966
1967
1963
1958
1968
1963
1965
1969
1968
1965
1970
1973
1977
1972
1982
1987
1926
1980
1919
1969
1980
1978
1969
1968
1973
1968
1972
1975
1981
1971
1983
1980
1983
1984
1978
1984
1979
1977
1977
1975
1983
1979
1973
1974
1978
1981
1982
1983
1974
1976
1978
1974
1982
1987
1984
2019
2032
2027
2000
1994
2000
1983
1971
1978
1982
1979
1978
1967
1968
1968
1968
1966
1969
1963
1962
1935
1870
1805
1475
1374
1681
2498
3050
2727
2444
2113
1851
1779
1822
1863
1893
1911
1906
1902
1904
1904
1902
1910
1916
1910
1911
1911
1898
1894
1899
1901
1879
1872
1868
1857
1855
1856
1841
1853
1866
1859
1872
1888
1947
1886
1919
1937
1936
1942
1958
1968
1964
1963
1964
1952
1955
1949
1943
1947
1954
1947
1947
1936
1933
1944
1938
1925
1921
1927
1917
1911
1911
1919
1917
1924
1925
1913
1917
1918
1908
1906
1916
1910
1904
1907
1911
1920
1911
1910
1901
1886
1904
1904
1904
1907
1904
1906
1908
1907
1904
1918
1899
1895
1899
1916
1904
1893
1890
1899
1899
1892
1883
1879
1887
1898
1895
1887
1895
1890
1883
1887
1904
1915
1929
1915
1904
1877
1889
1882
1873
1868
1872
1876
1881
1866
1870
1872
1865
1859
1861
1854
1865
1865
1807
1769
1526
1339
1501
2224
2886
2807
2578
2253
1903
1707
1678
1716
1750
1773
1799
1810
1810
1811
1809
1819
1832
1824
1824
1831
1825
1818
1812
1821
1815
1827
1822
1805
1801
1802
1797
1789
1802
1805
1808
1809
1819
1827
1842
1866
1877
1893
1915
1926
1927
1950
1950
1951
1953
1949
1946
1943
1962
1959
1957
1968
1978
1978
1983
1980
1975
1986
1986
1984
1987
1984
1982
1985
1991
1987
1978
1982
1979
1981
1981
1979
1974
1983
1984
1985
1991
1990
1987
1990
2000
2000
2000
2014
2005
2007
2016
2022
2004
2016
2018
2010
2013
2010
2019
2019
2031
2043
2063
2085
2073
2034
2035
2035
2014
2011
2034
2031
2032
2032
2033
2019
2018
2015
2013
2003
2018
1979
1971
1921
1774
1487
1527
2064
2938
3162
2783
2399
2054
1867
1818
1871
1911
1936
1943
1955
1958
1968
1967
1971
1973
1979
1974
1968
1963
1965
1968
1965
1958
1947
1942
1938
1936
1921
1918
1911
1909
1920
1927
1931
1935
1950
1963
1972
1989
1999
2005
2019
2019
2021
2029
2032
2012
2021
2015
2003
2003
2021
2015
2009
2005
2006
2000
1994
1998
1994
1995
1985
1980
1981
1985
1984
1978
1979
1974
1967
1969
1968
1967
1966
1962
1956
1958
1950
1952
1941
1942
1936
1935
1936
1936
1920
1919
1927
1923
1924
1920
1907
1904
1920
1907
1910
1913
1904
1904
1907
1910
1895
1889
1885
1891
1899
1926
1937
1930
1906
1895
1883
1872
1862
1863
1870
1872
1855
1855
1853
1847
1841
1851
1854
1851
1855
1819
1744
1693
1322
1250
1563
2395
2932
2624
2324
1981
1711
1677
1706
1742
1767
1791
1798
1798
1808
1802
1801
1807
1805
1795
1801
1804
1794
1804
1805
1792
1792
1798
1789
1786
1780
1776
1778
1787
1791
1789
1798
1807
1819
1841
1849
1861
1871
1872
1872
1872
1872
1869
1867
1872
1872
1869
1868
1863
1860
1869
1870
1865
1870
1872
1873
1878
1875
1872
1877
1875
1879
1873
1878
1877
1873
1873
1872
1870
1872
1873
1876
1871
1872
1864
1872
1865
1867
1862
1862
1867
1861
1858
1859
1859
1856
1869
1872
1856
1865
1870
1863
1859
1857
1857
1858
1859
1851
1856
1853
1853
1846
1855
1856
1847
1857
1854
1858
1869
1888
1904
1904
1873
1864
1870
1854
1840
1840
1845
1863
1851
1855
1849
1839
1840
1853
1843
1844
1849
1822
1739
1680
1353
1254
1558
2390
2934
2631
2336
1995
1747
1683
1712
1747
1776
1802
1802
1807
1792
1809
1813
1811
1842
1818
1813
1815
1808
1893
1827
1759
1865
1825
1792
1776
1820
1776
1868
1805
1798
1806
1818
1832
1840
1851
1870
1873
1885
1903
1895
1887
1899
1897
1892
1891
1891
1886
1888
1891
1891
1897
1893
1899
1901
1897
1902
1895
1903
1902
1899
1910
1898
1897
1901
1889
1898
1898
1899
1893
1882
1899
1888
1891
1899
1886
1878
1883
1880
1889
1901
1891
1883
1890
1898
1891
1887
1899
1899
1893
1889
1888
1890
1891
1890
1896
1899
1904
1890
1878
1902
1909
1901
1905
1907
1915
1925
1934
1939
1927
1904
1920
1907
1899
1895
1902
1909
1904
1883
1882
1879
1884
1875
1887
1891
1889
1877
1810
1775
1590
1330
1459
2032
2785
2831
2511
2243
1913
1728
1713
1757
1789
1806
1826
1824
1824
1822
1833
1840
1840
1842
1842
1847
1847
1845
1839
1833
1839
1833
1823
1818
1808
1792
1779
1794
1807
1808
1808
1831
1838
1845
1864
1872
1882
1888
1904
1907
1903
1908
1910
1911
1921
1920
1901
1907
1904
1891
1902
1895
1894
1903
1919
1911
1920
1914
1895
1904
1907
1890
1882
1873
1877
1875
1883
1885
1886
1892
1887
1895
1895
1890
1877
1875
1890
1895
1897
1904
1893
1887
1881
1882
1884
1886
1882
1885
1879
1881
1883
1893
1901
1895
1893
1901
1904
1891
1898
1920
1935
1929
1934
1898
1907
1906
1883
1872
1891
1894
1887
1887
1885
1874
1870
1875
1867
1866
1873
1866
1810
1776
1590
1357
1474
1970
2852
2863
2615
2352
1947
1740
1691
1727
1792
1804
1815
1821
1827
1834
1840
1844
1840
1839
1833
1831
1834
1840
1835
1831
1826
1817
1814
1802
1807
1791
1778
1789
1787
1777
1792
1795
1812
1829
1840
1851
1881
1894
1902
1911
1923
1929
1926
1925
1921
1917
1918
1907
1906
1907
1910
1915
1921
1919
1919
1920
1929
1934
1927
1925
1920
1916
1915
1910
1898
1891
1894
1885
1879
1894
1894
1878
1891
1892
1889
1885
1891
1886
1889
1894
1891
1890
1897
1894
1881
1894
1898
1883
1896
1901
1886
1889
1888
1895
1887
1893
1895
1883
1879
1892
1906
1937
1940
1938
1904
1906
1894
1873
1872
1889
1894
1897
1882
1865
1869
1874
1870
1873
1877
1879
1875
1812
1778
1600
1291
1407
1971
2819
2858
2513
2215
1887
1721
1723
1774
1808
1829
1846
1842
1842
1856
1865
1857
1867
1863
1863
1869
1872
1855
1856
1865
1859
1851
1856
1850
1841
1841
1841
1838
1836
1850
1851
1861
1873
1889
1901
1918
1927
1935
1939
1950
1937
1941
1951
1937
1936
1942
1927
1929
1933
1929
1930
1932
1936
1929
1943
1941
1936
1934
1936
1940
1941
1938
1947
1939
1942
1936
1939
1958
1955
1940
1939
1938
1941
1946
1947
1937
1937
1941
1936
1936
1938
1936
1937
1936
1932
1935
1936
1936
1934
1942
1937
1940
1935
1933
1934
1936
1938
1931
1931
1934
1936
1933
1931
1944
1968
1986
1979
1959
1937
1953
1936
1911
1919
1930
1923
1920
1914
1920
1915
1906
1914
1917
1927
1931
1900
1827
1767
1424
1322
1653
2493
3007
2739
2407
2067
1831
1755
1789
1840
1865
1875
1885
1887
1887
1900
1891
1894
1893
1890
1902
1890
1901
1891
1875
1872
1881
1879
1867
1872
1859
1853
1854
1850
1856
1871
1877
1883
1889
1907
1913
1925
1933
1938
1937
1952
1952
1948
1948
1949
1951
1943
1947
1942
1939
1945
1942
1939
1947
1936
1936
1948
1949
1943
1953
1953
1945
1947
1955
1946
1943
1949
1947
1948
1950
1955
1951
1957
1950
1946
1949
1950
1953
1947
1949
1948
1951
1955
1953
1940
1946
1946
1936
1915
1938
1942
1961
1936
1941
1947
1950
1947
1937
1936
1937
1942
1939
1937
1929
1931
1936
1935
1946
1967
1975
1974
1984
1957
1947
1950
1926
1920
1926
1923
1920
1925
1926
1913
1913
1918
1918
1919
1919
1921
1883
1835
1691
1362
1361
1754
2724
2944
2627
2352
1971
1795
1755
1790
1842
1859
1865
1863
1872
1874
1880
1888
1883
1886
1882
1886
1887
1894
1897
1895
1890
1881
1858
1857
1855
1853
1845
1850
1842
1858
1872
1872
1890
1905
1921
1915
1921
1933
1949
1953
1966
1968
1958
1954
1968
1962
1955
1945
1943
1949
1941
1936
1944
1884
1937
1938
1939
1938
1936
1941
1935
1936
1934
1922
1923
1934
1931
1920
1924
1936
1934
1919
1933
1927
1920
1927
1921
1924
1921
1927
1923
1933
1936
1929
1934
1936
1934
1931
1939
1936
1920
1920
1936
1933
1933
1943
1939
1937
1941
1950
1949
1947
1955
1962
1982
2002
2032
1954
1955
1972
1954
1949
1968
1968
1977
1966
1968
1962
1952
1951
1979
1977
1966
1959
1939
1889
1811
1516
1501
1859
2660
3034
2781
2545
2210
1919
1792
1811
1847
1902
1918
1922
1927
1940
1951
1952
1959
1957
1959
1954
1969
1968
1966
1957
1965
1957
1959
1939
1921
1937
1939
1937
1926
1925
1938
1951
1962
1965
1981
2007
2030
2043
2060
2072
2070
2091
2090
2085
2096
2093
2090
2093
2095
2089
2070
2081
2085
2077
2086
2097
2092
2086
2087
2082
2073
2071
2059
2066
2065
2058
2041
2034
2035
2036
2041
2035
2032
2032
2025
2007
2015
2015
2018
2015
2014
2011
2013
2011
2018
2006
2001
1999
1994
1982
1983
1989
1986
1984
1975
1978
1981
1991
2003
2029
2029
2012
1979
1980
1961
1927
1930
1939
1936
1936
1922
1920
1920
1919
1920
1918
1916
1919
1889
1819
1779
1512
1334
1551
2288
2995
2798
2481
2139
1841
1715
1727
1778
1803
1813
1825
1837
1830
1825
1827
1822
1823
1827
1819
1825
1827
1834
1815
1815
1813
1791
1793
1792
1779
1777
1776
1776
1774
1777
1790
1808
1817
1823
1829
1845
1863
1863
1872
1885
1888
1881
1875
1877
1863
1872
1865
1862
1859
1866
1855
1857
1859
1865
1859
1872
1870
1859
1863
1871
1859
1866
1868
1859
1859
1869
1861
1862
1866
1859
1859
1857
1860
1854
1855
1850
1840
1845
1845
1835
1837
1842
1840
1845
1840
1853
1844
1840
1841
1834
1840
1839
1835
1839
1839
1833
1854
1873
1878
1870
1846
1846
1851
1828
1830
1823
1826
1826
1822
1749
1826
1824
1813
1807
1818
1819
1819
1757
1714
1526
1230
1300
1893
2746
2864
2466
2173
1828
1675
1680
1729
1776
1786
1806
1808
1815
1823
1815
1831
1834
1831
1829
1840
1841
1841
1840
1837
1838
1827
1834
1827
1822
1825
1810
1821
1829
1831
1842
1864
1871
1885
1897
1915
1922
1934
1940
1936
1937
1954
1952
1937
1934
1927
1927
1936
1936
1934
1937
1934
1927
1931
1940
1936
1937
1939
1943
1934
1937
1933
1930
1934
1934
1927
1930
1929
1968
1920
1920
1929
1924
1922
1920
1921
1933
1933
1918
1921
1923
1920
1919
1920
1916
1920
1910
1904
1910
1923
1911
1904
1904
1919
1909
1905
1912
1927
1937
1965
1955
1920
1915
1913
1886
1903
1896
1887
1892
1893
1886
1883
1885
1875
1876
1881
1878
1872
1810
1770
1569
1280
1376
1940
2785
2902
2513
2213
1875
1723
1712
1748
1797
1805
1827
1830
1835
1840
1838
1840
1839
1840
1842
1832
1835
1840
1833
1834
1831
1818
1814
1808
1801
1795
1809
1798
1794
1809
1814
1825
1840
1843
1868
1872
1894
1891
1894
1903
1903
1898
1903
1900
1894
1891
1901
1892
1893
1896
1893
1883
1890
1889
1882
1892
1902
1894
1898
1891
1895
1897
1899
1889
1887
1889
1893
1892
1895
1895
1889
1888
1883
1891
1897
1886
1882
1891
1881
1894
1890
1893
1878
1875
1882
1887
1887
1887
1887
1872
1873
1887
1872
1872
1882
1871
1867
1875
1889
1903
1931
1936
1936
1905
1887
1890
1871
1863
1874
1873
1873
1870
1872
1873
1872
1863
1872
1872
1863
1863
1831
1759
1699
1358
1310
1527
2455
2907
2651
2390
2016
1755
1674
1702
1762
1783
1802
1808
1807
1817
1818
1817
1824
1826
1826
1830
1825
