1913
1914
1914
1915
1919
1915
1916
1919
1920
1920
1921
1925
1923
1929
1898
1927
1926
1926
1929
1930
1932
1929
1932
1936
1926
1935
1935
1934
1936
1936
1941
1936
1941
1936
1935
1933
1929
1909
1914
1916
1914
1906
1906
1910
1910
1933
1939
1953
1971
1987
1996
2015
2041
2033
2037
2059
2059
2057
2063
2064
2063
2074
2081
2070
2075
2069
2075
2084
2082
2081
2081
2089
2086
2079
2081
2085
2080
2075
2076
2065
2065
2066
2066
2067
2067
2068
2067
2071
2064
2053
2060
2063
2053
2058
2042
2032
2038
2046
2041
2032
2033
2026
2023
2032
2061
2025
2028
2023
2018
2015
2017
2015
2007
2019
2023
2030
2058
2060
2021
1998
2007
1995
1983
1979
1978
1977
1973
1968
1958
1956
1953
1949
1953
1943
1933
1879
1812
1603
1342
1421
1921
2899
2993
2665
2333
1910
1745
1733
1783
1817
1827
1840
1840
1841
1844
1840
1830
1835
1841
1835
1828
1826
1814
1807
1795
1792
1789
1790
1783
1759
1745
1747
1754
1751
1757
1759
1775
1797
1808
1806
1810
1840
1857
1855
1867
1861
1857
1866
1859
1848
1851
1843
1842
1846
1846
1839
1835
1840
1846
1840
1849
1840
1840
1844
1841
1828
1835
1838
1828
1829
1834
1817
1814
1822
1811
1810
1821
1811
1802
1814
1807
1807
1811
1803
1801
1810
1814
1801
1799
1813
1809
1796
1806
1808
1818
1813
1806
1809
1817
1821
1804
1797
1801
1808
1803
1804
1806
1802
1813
1813
1813
1808
1803
1808
1823
1840
1844
1843
1817
1806
1797
1805
1808
1795
1812
1840
1828
1828
1835
1819
1825
1830
1837
1837
1840
1838
1780
1728
1467
1303
1481
2272
2896
2803
2577
2193
1861
1693
1658
1687
1743
1770
1781
1786
1792
1789
1792
1805
1811
1809
1802
1808
1808
1805
1798
1792
1793
1796
1792
1776
1776
1769
1744
1758
1763
1762
1774
1782
1795
1807
1823
1845
1870
1883
1879
1897
1904
1907
1909
1909
1913
1915
1923
1902
1904
1920
1919
1917
1911
1917
1931
1936
1935
1923
1921
1927
1920
1895
1920
1920
1904
1911
1921
1917
1921
1916
1931
1893
1934
1938
1933
1934
1931
1936
1937
1992
1936
1933
1935
1934
1929
1935
1930
1917
1927
1925
1923
1942
1936
1930
1919
1921
1926
1936
1936
1930
1920
1921
1935
1966
1982
1982
1948
1930
1939
1918
1916
1927
1923
1920
1921
1917
1905
1907
1912
1917
1914
1911
1904
1830
1799
1566
1364
1568
2258
3010
2959
2595
2223
1893
1745
1726
1776
1818
1834
1842
1856
1856
1857
1859
1860
1859
1863
1858
1863
1863
1870
1866
1866
1858
1843
1838
1827
1831
1817
1815
1813
1807
1811
1826
1830
1841
1861
1872
1886
1905
1916
1925
1936
1936
1939
1942
1955
1936
1938
1935
1936
1936
1938
1932
1933
1939
1941
1936
1948
1949
1942
1949
1947
1946
1938
1941
1938
1936
1945
1945
1937
1936
1934
1936
1936
1931
1923
1923
1922
1923
1920
1923
1922
1909
1914
1920
1919
1918
1917
1910
1905
1894
1906
1911
1903
1901
1897
1916
1913
1904
1906
1907
1904
1913
1904
1915
1900
1907
1913
1904
1903
1901
1899
1909
1917
1901
1895
1901
1897
1904
1903
1904
1906
1924
1923
1911
1899
1863
1863
1878
1876
1872
1879
1899
1904
1903
1904
1902
1901
1904
1901
1904
1906
1878
1811
1747
1433
1315
1554
2482
3035
2786
2469
2035
1793
1737
1770
1822
1842
1854
1856
1857
1852
1863
1871
1877
1872
1872
1873
1871
1862
1865
1858
1858
1863
1845
1840
1835
1823
1831
1831
1835
1840
1841
1857
1872
1872
1882
1895
1904
1919
1920
1913
1913
1924
1915
1913
1906
1906
1902
1902
1906
1931
1909
1907
1905
1904
1905
1907
1910
1911
1910
1909
1917
1920
1914
1915
1921
1921
1922
1919
1917
1909
1920
1922
1905
1919
1916
1911
1918
1915
1903
1904
1914
1914
1905
1909
1905
1907
1918
1906
1902
1906
1909
1901
1899
1906
1907
1909
1909
1907
1901
1904
1904
1903
1904
1918
1905
1911
1904
1895
1905
1906
1904
1897
1915
1907
1901
1906
1920
1903
1908
1896
1902
1913
1909
1920
1935
1937
1925
1888
1866
1871
1872
1887
1872
1884
1904
1916
1915
1915
1913
1905
1905
1916
1910
1904
1850
1808
1619
1341
1442
2003
2861
3005
2608
2269
1933
1766
1754
1808
1844
1856
1868
1872
1872
1872
1885
1885
1891
1883
1891
1883
1887
1891
1887
1888
1886
1876
1879
1878
1870
1870
1859
1861
1861
1873
1879
1882
1905
1917
1921
1939
1955
1947
1962
1963
1962
1968
1971
1963
1958
1955
1949
1952
1961
1968
1961
1966
1968
1954
1968
1979
1977
1971
1981
1979
1971
1983
1984
1978
1978
1993
1989
1994
1993
1993
1989
1987
1984
1983
1991
1989
1980
1979
1981
1982
1985
1984
1983
1978
1975
1974
1973
1973
1978
1975
1989
1983
1971
1977
1984
1973
1969
1978
1973
1984
1986
1979
1967
1968
1980
1970
1981
1975
1968
1979
1972
1968
1973
1979
1971
1973
2026
1979
1979
1985
1979
1985
1968
1959
1970
1981
1989
1973
1946
1910
1937
1946
1947
1936
1936
1952
1962
1967
1966
1968
1946
1954
1968
1962
1968
1942
1857
1762
1473
1459
1867
2704
3070
2793
2465
2112
1847
1761
1795
1835
1853
1870
1886
1884
1881
1879
1878
1889
1886
1882
1872
1879
1875
1863
1866
1863
1859
1862
1858
1841
1825
1822
1823
1826
1824
1831
1830
1840
1841
1855
1870
1894
1904
1900
1904
1909
1918
1920
1904
1907
1926
1929
1915
1899
1891
1905
1914
1913
1904
1906
1920
1919
1914
1915
1906
1903
1904
1886
1875
1891
1902
1893
1893
1910
1894
1883
1891
1886
1892
1894
1890
1892
1886
1888
1871
1872
1874
1872
1872
1872
1874
1874
1875
1873
1873
1871
1872
1881
1877
1874
1869
1881
1888
1879
1878
1890
1883
1882
1876
1872
1871
1867
1872
1869
1863
1869
1872
1883
1875
1872
1873
1887
1882
1886
1893
1865
1826
1840
1852
1850
1854
1859
1872
1878
1888
1886
1877
1876
1883
1874
1881
1874
1834
1780
1607
1344
1477
1963
2919
2975
2695
2369
1936
1739
1694
1712
1774
1797
1809
1810
1815
1810
1822
1831
1830
1824
1837
1840
1828
1839
1825
1810
1817
1823
1804
1807
1799
1793
1791
1785
1785
1781
1803
1809
1820
1838
1844
1855
1872
1877
1899
1910
1915
1918
1919
1925
1921
1907
1911
1904
1904
1907
1913
1912
1908
1909
1910
1909
1914
1914
1910
1921
1919
1905
1905
1909
1904
1904
1904
1904
1897
1901
1891
1894
1893
1891
1891
1892
1888
1889
1890
1887
1889
1889
1900
1897
1897
1898
1901
1888
1895
1887
1891
1893
1902
1899
1893
1887
1885
1891
1893
1887
1881
1891
1890
1882
1888
1891
1888
1886
1890
1884
1879
1888
1893
1904
1910
1907
1889
1857
1842
1850
1865
1861
1854
1872
1887
1898
1887
1902
1897
1893
1896
1893
1897
1883
1811
1776
1467
1299
1484
2204
3041
2869
2516
2151
1810
1724
1745
1795
1859
1841
1845
1854
1854
1856
1855
1820
1870
1866
1857
1866
1862
1865
1868
1861
1854
1855
1861
1844
1833
1833
1828
1823
1831
1840
1841
1862
1871
1882
1892
1903
1916
1921
1923
1921
1911
1923
1923
1911
1911
1915
1907
1909
1915
1905
1904
1909
1904
1909
1919
1916
1913
1920
1919
1911
1920
1923
1918
1923
1920
1914
1917
1922
1925
1916
1920
1921
1913
1919
1923
1917
1911
1911
1909
1910
1911
1909
1909
1910
1910
1903
1909
1910
1907
1915
1913
1908
1907
1910
1913
1910
1914
1904
1909
1911
1917
1906
1904
1909
1910
1905
1917
1906
1905
1909
1904
1903
1904
1904
1906
1922
1920
1915
1919
1857
1858
1879
1889
1875
1887
1904
1913
1910
1914
1909
1904
1909
1915
1918
1915
1883
1799
1675
1366
1366
1840
2735
3085
2752
2359
1987
1777
1744
1801
1837
1855
1872
1872
1873
1875
1876
1873
1876
1882
1881
1885
1879
1886
1875
1878
1872
1866
1871
1857
1861
1858
1861
1853
1848
1858
1859
1879
1893
1904
1913
1923
1936
1947
1955
1949
1950
1962
1965
1954
1963
1959
1957
1962
2015
1959
1952
1957
1958
1961
1968
1967
1968
1970
1968
1970
1980
1979
1973
1977
1971
1968
1971
1971
1970
1968
1973
1968
1962
1965
1971
1973
1969
2009
1968
1969
1966
1960
1963
1969
1977
1967
1968
1974
1974
1984
1974
1962
1961
1967
1962
1969
1968
1962
1961
1967
1968
1968
1971
1978
1970
1973
1970
1963
1968
1973
1969
1990
1976
1970
1968
1963
1969
1980
1981
1979
1963
1924
1904
1900
1934
1926
1936
1945
1963
1968
1968
1965
1959
1968
1967
1961
1962
1952
1884
1831
1559
1367
1531
2345
3088
2966
2627
2227
1917
1794
1801
1857
1885
1895
1910
1913
1913
1917
1922
1919
1923
1926
1913
1919
1918
1914
1905
1904
1903
1890
1890
1888
1874
1875
1870
1866
1872
1878
1885
1883
1902
1914
1920
1940
1950
1956
1962
1965
1950
1984
1963
1953
1946
1957
1952
1949
1942
1941
1939
1946
1943
1949
1941
1949
1951
1949
1950
1945
1943
1941
1936
1927
1923
1926
1925
1928
1925
1915
1918
1931
1920
1923
1923
1907
1911
1920
1920
1923
1915
1911
1905
1914
1909
1910
1904
1901
1903
1904
1909
1899
1889
1894
1899
1892
1894
1893
1890
1883
1897
1889
1888
1893
1879
1875
1882
1883
1872
1881
1881
1886
1883
1885
1876
1870
1872
1872
1872
1881
1885
1872
1843
1808
1791
1810
1821
1824
1829
1856
1872
1872
1874
1873
1872
1872
1871
1865
1863
1854
1783
1744
1501
1262
1450
2148
2926
2855
2521
2181
1842
1696
1706
1747
1786
1798
1809
1819
1808
1811
1814
1818
1822
1815
1823
1823
1815
1819
1818
1811
1806
1805
1785
1782
1778
1771
1765
1770
1773
1770
1773
1790
1796
1813
1823
1834
1840
1867
1862
1857
1869
1874
1875
1881
1877
1874
1870
1872
1874
1877
1887
1882
1887
1887
1879
1883
1891
1890
1886
1891
1884
1883
1886
1878
1873
1873
1866
1871
1872
1879
1878
1870
1864
1873
1873
1874
1876
1857
1857
1866
1867
1869
1869
1867
1863
1872
1867
1862
1861
1855
1853
1856
1858
1853
1847
1857
1853
1857
1849
1846
1849
1859
1858
1843
1846
1856
1851
1849
1857
1866
1856
1849
1856
1857
1858
1855
1861
1840
1797
1756
1750
1771
1774
1799
1822
1838
1853
1871
1868
1883
1876
1874
1878
1888
1893
1874
1808
1744
1421
1341
1616
2500
3000
2752
2531
2128
1840
1717
1683
1760
1802
1818
1904
1829
1841
1839
1845
1839
1833
1843
1845
1835
1839
1842
1840
1833
1823
1813
1807
1795
1805
1793
1783
1775
1782
1793
1792
1802
1816
1822
1840
1861
1872
1879
1902
1919
1922
1920
1926
1927
1922
1917
1909
1918
1916
1908
1919
1939
1936
1924
1922
1935
1938
1935
1933
1939
1936
1952
1951
1927
1921
1926
1923
1923
1927
1936
1927
1923
1923
1922
1936
1930
1932
1932
1917
1921
1931
1935
1920
1920
1930
1936
1936
1936
1940
1933
1936
1936
1891
1934
1940
1936
1925
1929
1941
1940
1948
1944
1943
1949
1952
1958
1984
1984
2005
1985
1952
1923
1942
1936
1936
1938
1959
1954
1952
1955
1943
1936
1932
1943
1937
1936
1937
1872
1840
1642
1414
1562
2112
2959
3063
2726
2394
2015
1804
1759
1789
1825
1857
1883
1888
1894
1898
1899
1898
1903
1899
1904
1907
1901
1901
1903
1899
1898
1885
1888
1872
1866
1853
1845
1808
1840
1843
1843
1852
1867
1878
1899
1914
1968
1955
1968
1974
1979
1990
1994
1990
2000
1990
1989
1989
1990
1985
1991
2000
1986
1989
1994
2000
1995
1991
2000
2000
2001
2001
1984
1991
1987
1982
1978
1981
1979
1971
1968
1964
1962
1966
1963
1955
1968
1967
1958
1959
1953
1961
1955
1950
1949
1947
1951
1947
1946
1951
1953
1939
1946
1939
1936
1930
1938
1942
1939
1942
1941
1951
1979
2000
1987
1945
1943
1951
1921
1915
1931
1935
1933
1927
1923
1922
1922
1920
1921
1922
1922
1914
1831
1799
1581
1316
1472
2160
2997
3039
2599
2229
1888
1737
1747
1801
1836
1858
1872
1866
1870
1872
1879
1880
1885
1876
1872
1876
1873
1874
1872
1879
1903
1872
1862
1856
1847
1840
1839
1834
1841
1840
1844
1868
1873
1878
1895
1909
1927
1932
1931
1937
1936
1938
1945
1938
1936
1943
1930
1936
1933
1921
1932
1936
1927
1926
1923
1931
1936
1936
1937
1936
1956
1937
1935
1931
1942
1941
1930
1934
1935
1931
1937
1929
1947
1929
1934
1923
1933
1930
1919
1919
1929
1924
1923
1923
1921
1920
1923
1922
1906
1914
1920
1919
1917
1917
1920
1920
1922
1917
1907
1918
1909
1902
1914
1915
1909
1920
1954
1968
1965
1931
1917
1929
1911
1902
1907
1910
1904
1901
1903
1902
1903
1894
1893
1891
1871
1898
1829
1782
1616
1313
1381
1922
2814
3019
2634
2291
1921
1727
1725
1772
1802
1833
1846
1855
1851
1856
1863
1860
1865
1862
1871
1893
1869
1866
1868
1856
1859
1903
1849
1870
1840
1833
1795
1795
1826
1823
1837
1846
1847
1870
1886
1895
1904
1919
1920
1920
1930
1935
1928
1934
1931
1931
1920
1920
1921
1925
1931
1931
1925
1929
1937
1935
1927
1930
1936
1936
1939
1939
1936
1933
1930
1925
1933
1936
1933
1937
1936
1927
1932
1927
1927
1927
1923
1921
1919
1929
1922
1925
1919
1921
1920
1922
1919
1920
1922
1926
1917
1914
1916
1926
1915
1920
1910
1913
1914
1917
1913
1913
1916
1907
1904
1909
1919
1919
1920
1915
1920
1918
1919
1920
1919
1923
1933
1937
1939
1936
1904
1865
1872
1872
1882
1877
1883
1904
1915
1915
1921
1918
1914
1903
1914
1922
1919
1920
1846
1807
1597
1327
1459
2077
2906
2987
2594
2259
1911
1745
1749
1799
1822
1837
1849
1851
1853
1869
1866
1857
1871
1863
1871
1861
1862
1856
1855
1855
1855
1850
1824
1819
1818
1822
1817
1810
1815
1814
1825
1813
1843
1851
1872
1885
1883
1898
1904
1914
1911
1925
1920
1914
1923
1922
1907
1899
1903
1915
1909
1922
1917
1918
1925
1927
1934
1930
1923
1929
1931
1926
1927
1926
1923
1929
1910
1920
1923
1921
1921
1932
1933
1931
1929
1916
1933
1939
1936
1930
1912
1914
1936
1937
1925
1920
1937
1943
1937
1922
1920
1922
1936
1951
1936
1936
1942
1941
1941
1957
1953
1940
1943
1934
1936
1952
1968
1952
1947
1966
1974
1961
1955
1944
1949
1943
1956
1968
1979
1973
1919
1890
1919
1937
1936
1943
1954
1968
1978
1968
1945
1968
1959
1962
1974
1989
1977
1943
1871
1831
1531
1454
1807
2599
3160
2973
2659
2288
1950
1788
1770
1805
1829
1856
1904
1902
1890
1892
1901
1911
1921
1921
1904
1904
1909
1907
1899
1904
1904
1895
1884
1872
1895
1856
1852
1843
1847
1855
1858
1859
1867
1897
1914
1936
1936
1946
1970
1989
2000
1999
1985
1990
2000
1999
2000
2000
2000
1998
1988
1995
1991
2000
2013
2002
2000
2003
2005
1993
1996
2000
1987
1985
1985
1977
1971
1984
1968
1965
1979
1979
1968
1968
1958
1965
1964
1962
1953
1951
1965
1968
1957
1966
1962
1947
1962
1958
1942
1942
1951
1951
1942
1940
1935
1936
1938
1938
1936
1938
1936
1934
1923
1923
1933
1935
1935
1936
1959
1980
1973
1943
1931
1937
1911
1902
1907
1904
1904
1897
1893
1883
1891
1842
1899
1895
1894
1893
1863
1806
1665
1360
1374
1747
2768
3071
2733
2389
1950
1744
1686
1735
1793
1806
1819
1827
1817
1830
1842
1845
1839
1850
1849
1845
1851
1845
1847
1851
1842
1830
1831
1830
1814
1803
1805
1797
1792
1799
1821
1814
1830
1831
1846
1856
1872
1872
1882
1899
1901
1902
1902
1898
1895
1889
1886
1887
1891
1889
1891
1872
1879
1883
1884
1882
1874
1883
1886
1887
1890
1887
1890
1878
1893
1891
1882
1884
1894
1885
1882
1881
1896
1883
1886
1888
1883
1894
1885
1883
1887
1886
1882
1877
1873
1870
1872
1876
1879
1876
1878
1878
1873
1876
1881
1872
1867
1870
1871
1874
1882
1875
1881
1879
1872
1872
1874
1875
1873
1871
1871
1867
1865
1870
1873
1871
1872
1871
1872
1875
1877
1886
1902
1901
1897
1855
1840
1853
1857
1861
1845
1852
1877
1891
1883
1893
1887
1882
1878
1882
1888
1894
1887
1823
1770
1493
1293
1433
2257
3008
2896
2541
2127
1826
1718
1744
1797
1821
1840
1843
1842
1857
1859
1855
1865
1866
1857
1860
1861
1853
1858
1875
1865
1856
1856
1846
1812
1841
1838
1824
1827
1833
1833
1840
1859
1859
1871
1888
1904
1915
1927
1926
1914
1916
1935
1926
1922
1924
1920
1907
1920
1920
1918
1923
1922
1909
1920
1925
1919
1926
1933
1934
1936
1945
1939
1942
1953
1943
1939
1943
1941
1936
1942
1947
1943
1950
1950
1947
1942
1929
1947
1947
1953
1941
1936
1946
1919
1968
1949
1951
1927
1938
1945
1926
1964
1947
1951
1944
1942
1955
1951
1948
1965
1958
1962
1968
1959
1954
1970
1966
1961
1968
1964
1963
1968
1970
1970
1968
1977
1978
1971
1984
1974
1979
1985
1985
1983
1982
1984
1987
1991
1998
2002
1982
1938
1927
1941
1953
1950
1951
1971
1987
1987
1988
1993
1984
1984
1999
1991
1989
1986
1953
1886
1776
1429
1456
1878
2768
3132
2770
2439
2078
1843
1824
1862
1903
1923
1936
1936
1943
1947
1927
1937
1937
1936
1941
1937
1921
1919
1920
1930
1931
1938
1936
1920
1914
1900
1892
1897
1898
1885
1891
1899
1909
1920
1937
1954
1954
1968
1968
1968
1977
1971
1960
1955
1959
1961
1949
1942
1932
1930
1936
1943
1936
1938
1936
1932
1942
1942
1929
1917
1923
1931
1923
1922
1911
1902
1913
1914
1900
1898
1911
1905
1895
1888
1898
1892
1887
1893
1887
1887
1890
1885
1886
1938
1888
1894
1888
1882
1876
1878
1876
1872
1872
1872
1869
1874
1867
1859
1870
1877
1870
1868
1870
1862
1866
1871
1872
1872
1882
1863
1860
1854
1866
1857
1856
1867
1867
1847
1862
1857
1845
1862
1867
1844
1861
1867
1858
1866
1855
1855
1834
1798
1808
1831
1837
1845
1841
1847
1841
1847
1853
1861
1846
1867
1874
1853
1845
1818
1753
1665
1392
1391
1727
2637
3020
2801
2510
2064
1769
1664
1671
1697
1729
1778
1801
1779
1789
1802
1796
1793
1792
1803
1804
1791
1792
1791
1867
1797
1766
1794
1808
1761
1749
1750
1743
1744
1757
1759
1779
1776
1851
1782
1803
1809
1842
1871
1872
1865
1882
1890
1898
1910
1902
1886
1874
1886
1881
1893
1904
1904
1904
1909
1914
1914
1921
1921
1911
1917
1904
1903
1898
1903
1899
1895
1890
1903
1891
1881
1886
1884
1882
1882
1878
1895
1888
1886
1887
1904
1903
1890
1904
1901
1889
1879
1886
1904
1903
1898
1891
1888
1902
1893
1891
1903
1901
1897
1895
1903
1898
1901
1904
1909
1904
1893
1892
1885
1891
1894
1892
1891
1901
1901
1909
1911
1895
1869
1843
1849
1863
1872
1871
1869
1898
1905
1902
1901
1909
1902
1895
1904
1902
1901
1887
1818
1771
1469
1373
1690
2499
3089
2859
2480
2112
1820
1723
1750
1799
1823
1840
1856
1847
1856
1867
1863
1866
1862
1865
1869
1872
1872
1867
1863
1862
1856
1854
1845
1839
1818
1825
1823
1821
1824
1827
1828
1846
1853
1855
1881
1891
1891
1910
1897
1927
1925
1937
1936
1937
1943
1936
1936
1936
1934
1928
1938
1946
1938
1939
1949
1950
1951
1951
1941
1952
1949
1949
1946
1949
1951
1946
1941
1938
1936
1925
1936
1936
1932
1937
1927
1926
1937
1931
1922
1932
1934
1921
1923
1931
1934
1926
1935
1920
1919
1921
1925
1927
1924
1924
1917
1923
1936
1922
1923
1924
1919
1927
1923
1919
1919
1931
1927
1936
1934
1906
1890
1893
1904
1890
1893
1917
1920
1921
1925
1924
1911
1918
1909
1910
1922
1925
1873
1810
1702
1373
1369
1825
2731
3133
2736
2379
1993
1776
1744
1782
1825
1857
1863
1875
1881
1877
1875
1890
1890
1893
1894
1890
1887
1886
1885
1882
1878
1874
1870
1867
1866
1855
1840
1840
1850
1842
1851
1867
1869
1882
1897
1906
1920
1930
1931
1935
1936
1939
1942
1942
1943
1937
1946
1946
1940
1936
1943
1948
1939
1947
1942
1950
1953
1953
1964
1953
1959
1956
1960
1955
1954
1966
1954
1955
1947
2005
1953
1955
1947
1945
1945
1947
1955
1936
1936
1936
1942
1938
1945
1949
1939
1941
1936
1936
1936
1945
1937
1934
1938
1937
1936
1933
1930
1934
1938
1933
1934
1945
1930
1938
1951
1931
1911
1923
1917
1908
1917
1922
1921
1921
1922
1921
1913
1920
1915
1919
1921
1926
1889
1810
1744
1424
1339
1697
2574
3171
2835
2480
2090
1802
1728
1771
1821
1856
1861
1867
1869
1873
1870
1872
1872
1872
1890
1882
1875
1889
1878
1870
1869
1873
1863
1856
1858
1854
1839
1833
1826
1822
1832
1840
1841
1849
1874
1882
1887
1906
1923
1922
1933
1947
1940
1939
1937
1936
1939
1945
1935
1930
1940
1937
1929
1937
1941
1937
1938
1950
1945
1951
1955
1939
1937
1939
1929
1931
1926
1918
1919
1929
1932
1915
1922
1926
1918
1920
1919
1904
1914
1920
1917
1905
1911
1910
1906
1906
1918
1906
1909
1905
1897
1903
1907
1903
1902
1903
1899
1899
1905
1905
1899
1899
1911
1901
1905
1906
1904
1902
1898
1893
1891
1896
1899
1894
1904
1904
1902
1895
1904
1902
1899
1904
1911
1914
1921
1904
1849
1840
1847
1857
1863
1869
1881
1899
1913
1913
1904
1904
1901
1895
1897
1905
1903
1883
1807
1735
1389
1339
1622
2432
3063
2785
2461
2097
1774
1700
1739
1791
1813
1837
1843
1842
1852
1859
1850
1850
1853
1847
1840
1849
1842
1829
1837
1838
1825
1828
1822
1806
1802
1793
1781
1774
1778
1791
1794
1811
1831
1834
1853
1862
1863
1878
1891
1883
1893
1903
1904
1904
1905
1894
1895
1900
1899
1895
1904
1910
1895
1894
1903
1905
1902
1913
1918
1909
1915
1903
1889
1904
1905
1904
1893
1899
1888
1891
1899
1887
1877
1895
1903
1883
1885
1877
1879
1894
1899
1889
1876
1885
1899
1890
1883
1887
1886
1887
1890
1889
1865
1872
1872
1882
1882
1888
1891
1886
1879
1887
1904
1888
1875
1887
1890
1877
1888
1887
1886
1883
1893
1883
1877
1933
1912
1890
1902
1905
1899
1899
1902
1861
1809
1828
1844
1863
1866
1862
1885
1904
1880
1871
1883
1893
1888
1887
1885
1890
1904
1836
1798
1589
1361
1561
2179
2943
2947
2688
2368
1979
1735
1693
1722
1769
1802
1817
1818
1815
1839
1840
1841
1846
1845
1837
1841
1842
1846
1843
1834
1824
1824
1830
1826
1810
1798
1792
1786
1791
1801
1807
1799
1810
1822
1837
1868
1889
1891
1909
1920
1939
1959
1954
1953
1961
1956
1954
1952
1968
1968
1969
1969
1979
1978
1979
1984
1968
1977
1986
1968
1953
1973
1967
1954
1955
1952
1951
1951
1949
1939
1943
1949
1936
1943
1947
1941
1943
1943
1943
1935
1935
1936
1942
1942
1943
1933
1933
1937
1933
1929
1936
1927
1921
1936
1930
1921
1927
1928
1936
1926
1922
1931
1923
1922
1920
1923
1937
1922
1919
1927
1925
1912
1921
1934
1931
1922
1905
1875
1914
1891
1895
1878
1897
1910
1923
1931
1901
1913
1920
1921
1931
1927
1927
1911
1868
1824
1633
1363
1503
2095
2927
2992
2665
2315
1954
1771
1744
1789
1842
1862
1868
1871
1873
1873
1879
1889
1888
1889
1893
1887
1879
1879
1875
1875
1876
1865
1856
1869
1858
1845
1840
1840
1837
1840
1840
1845
1854
1868
1872
1887
1907
1922
1920
1938
1947
1955
1963
1960
1959
1962
1959
1958
1955
1953
1950
1954
1962
1965
1955
1964
1968
1963
1968
1973
1967
1964
1966
1956
1951
1963
1954
1949
1955
1950
1943
1950
1942
1941
1939
1947
1936
1936
1936
1933
1936
1943
1937
1936
1937
1942
1936
1930
1938
1937
1939
1947
1927
1927
1944
1938
1938
1935
1933
1931
1927
1936
1937
1930
1930
1936
1936
1937
1941
1933
1941
1937
1931
1929
1942
1947
1954
1967
1939
1910
1923
1924
1905
1911
1920
1919
1923
1922
1929
1921
1922
1920
1920
1929
1930
1909
1851
1808
1520
1310
1457
2271
3036
2960
2598
2185
1869
1744
1756
1807
1844
1859
1873
1870
1876
1883
1889
1872
1877
1886
1885
1879
1886
1885
1888
1879
1872
1872
1866
1862
1851
1836
1839
1837
1848
1856
1853
1846
1870
1888
1897
1904
1918
1929
1936
1941
1935
1938
1942
1937
1936
1936
1936
1936
1927
1927
1921
1933
1938
1936
1933
1931
1930
1935
1936
1936
1939
1939
1935
1932
1939
1935
1931
1936
1937
1934
1926
1934
1936
1925
1885
1925
1926
1934
1933
1914
1922
1930
1936
1909
1919
1912
1905
1919
1909
1905
1872
1917
1906
1905
1911
1913
1915
1915
1911
1917
1911
1910
1904
1908
1904
1893
1906
1911
1904
1904
1919
1913
1906
1907
1907
1907
1917
1920
1916
1916
1874
1858
1878
1883
1875
1870
1895
1905
1910
1909
1903
1904
1904
1904
1904
1902
1905
1875
1803
1702
1371
1328
1655
2653
3099
2800
2462
2028
1783
1733
1758
1814
1829
1841
1854
1855
1853
1862
1872
1872
1872
1878
1867
1856
1863
1859
1859
1859
1846
1834
1827
1840
1818
1809
1818
1812
1807
1822
1829
1840
1855
1862
1840
1883
1904
1918
1930
1936
1941
1925
1927
1927
1931
1936
1930
1925
1922
1934
1921
1924
1936
1936
1936
1947
1947
1937
1949
1935
1936
1935
1938
1925
1921
1923
1915
1922
1923
1914
1921
1923
1916
1909
1914
1920
1919
1919
1919
1921
1925
1929
1923
1913
1907
1902
1903
1910
1916
1904
1907
1907
1912
1919
1917
1908
1907
1918
1914
1909
1919
1911
1917
1917
1913
1917
1915
1913
1907
1908
1920
1916
1904
1919
1915
1923
1931
1940
1937
1915
1872
1856
1870
1886
1886
1876
1894
1915
1907
1917
1913
1903
1904
1904
1898
1914
1920
1895
1811
1741
1431
1319
1569
2480
3052
2819
2511
2102
1824
1728
1728
1789
1819
1829
1838
1837
1840
1849
1843
1839
1839
1853
1854
1837
1833
1837
1835
1837
1829
1814
1805
1797
1786
1778
1783
1778
1778
1788
1793
1798
1815
1831
1840
1839
1860
1873
1877
1889
1909
1905
1901
1894
1891
1899
1899
1894
1890
1903
1902
1891
1899
1903
1902
1899
1900
1901
1911
1895
1904
1904
1903
1878
1885
1894
1894
1890
1887
1886
1878
1824
1891
1886
1890
1901
1890
1884
1888
1877
1883
1900
1907
1873
1872
1875
1890
1877
1885
1885
1874
1886
1872
1875
1875
1883
1882
1890
1879
1873
1872
1886
1885
1872
1871
1871
1871
1902
1895
1882
1886
1860
1876
1885
1889
1886
1906
1959
1898
1853
1749
1840
1858
1861
1856
1876
1890
1897
1877
1906
1923
1887
1885
1906
1915
1910
1899
1825
1786
1553
1403
1584
2179
2994
2946
2709
2374
1927
1744
1712
1723
1758
1794
1815
1824
1826
1840
1840
1844
1852
1855
1869
1858
1856
1850
1853
1851
1846
1840
1827
1824
1829
1819
1803
1803
1787
1789
1808
1815
1811
1811
1845
1871
1874
1914
1936
1935
1951
1963
1961
1965
1977
1971
1973
1972
1973
1965
1973
1974
1985
1990
1990
1990
1990
2002
1999
1985
1987
1984
1984
1985
1980
1969
1970
1978
1968
1965
1972
1969
1968
1973
1972
1968
1970
1968
1965
1971
1963
1967
1966
1968
1966
1975
1981
1965
1961
1971
1974
1971
1968
1967
1963
1966
1967
1965
1956
1970
1968
1970
1973
1970
1970
1974
1987
1971
1949
1966
1958
1942
1939
1939
1956
1965
1956
1952
1949
1942
1945
1953
1953
1951
1944
1870
1823
1574
1413
1639
2402
3151
2942
2606
2229
1898
1763
1787
1835
1872
1885
1887
1894
1902
1910
1905
1907
1905
1906
1907
1915
1915
1905
1903
1904
1895
1892
1892
1883
1872
1871
1856
1855
1855
1853
1856
1862
1872
1888
1907
1919
1936
1947
1965
1971
1975
1980
1983
1977
1971
1978
1971
1968
1971
1968
2014
1967
1968
1971
1975
1968
1966
1981
1983
1978
1967
1971
1963
1965
1957
1953
1968
1967
1965
1954
1949
1945
1943
1949
1949
1942
1937
1936
1942
1935
1939
1930
1934
1941
1935
1930
1931
1926
1921
1929
1930
1917
1920
1925
1927
1925
1921
1918
1913
1918
1920
1920
1927
1920
1920
1924
1925
1920
1922
1935
1925
1932
1940
1936
1904
1911
1924
1907
1902
1909
1918
1926
1939
1939
1933
1934
1936
1934
1936
1935
1936
1905
1840
1707
1376
1363
1722
2751
3119
2758
2431
2000
1806
1767
1821
1840
1923
1853
1887
1922
1904
1904
1910
1915
1922
1915
1911
1922
1920
1920
1919
1917
1910
1906
1905
1904
1900
1901
1891
1886
1903
1906
1908
1923
1936
1952
1963
1970
1981
1973
1988
1991
1998
1998
1985
1999
1999
1998
1985
1998
1991
1984
1985
1984
1972
1982
1984
1971
1973
1994
1994
1989
1985
1987
1982
1984
1987
1986
1990
1996
1981
1979
1978
1975
1974
1984
1977
1950
1951
1938
1938
1941
1942
1942
1939
1942
1941
1936
1940
1934
1929
1934
1932
1920
1930
1930
1924
1917
1920
1922
1909
1915
1917
1914
1920
1909
1906
1911
1904
1903
1907
1904
1899
1903
1905
1903
1904
1910
1915
1910
1920
1890
1847
1841
1857
1867
1861
1862
1869
1891
1899
1882
1881
1885
1885
1872
1876
1890
1883
1858
1784
1681
1347
1283
1585
2574
3054
2757
2423
2000
1754
1690
1727
1776
1790
1807
1814
1815
1819
1834
1828
1819
1820
1819
1815
1821
1825
1804
1798
1806
1792
1776
1776
1776
1766
1764
1759
1757
1766
1773
1776
1781
1797
1806
1813
1843
1847
1855
1861
1857
1859
1872
1872
1865
1876
1867
1856
1857
1867
1860
1863
1865
1867
1862
1869
1872
1861
1865
1873
1872
1870
1871
1872
1869
1863
1860
1857
1865
1867
1856
1857
1865
1856
1862
1859
1853
1862
1867
1856
1844
1852
1849
1843
1847
1840
1839
1840
1840
1840
1846
1847
1840
1839
1846
1847
1833
1843
1843
1841
1846
1846
1836
1841
1844
1839
1839
1840
1835
1843
1843
1839
1840
1840
1839
1826
1838
1844
1840
1838
1856
1856
1851
1821
1774
1787
1803
1807
1801
1814
1839
1835
1835
1849
1843
1838
1843
1850
1845
1854
1840
1774
1744
1551
1272
1410
1998
2821
2864
2574
2254
1904
1687
1665
1709
1754
1779
1779
1802
1808
1795
1804
1818
1815
1809
1813
1810
1819
1826
1821
1808
1832
1809
1808
1805
1787
1785
1783
1776
1764
1784
1795
1801
1808
1821
1839
1845
1856
1877
1879
1901
1901
1904
1914
1914
1919
1914
1925
1917
1898
1898
1921
1920
1920
1921
1930
1933
1933
1950
1954
1945
1931
1923
1941
1936
1925
1927
1941
1941
1936
1931
1930
1936
1946
1932
1923
1947
1958
1929
1929
1947
1940
1934
1954
1951
1955
1945
1947
1939
1948
1953
1935
1949
1971
1949
1949
1952
1952
1952
1954
1958
1959
1963
1963
1959
1966
1958
1958
1961
1962
1965
1970
1971
1965
1984
1973
1968
1956
1923
1915
1931
1941
1934
1937
1958
1969
1974
1984
1983
1962
1974
1985
1987
1984
1990
1953
1875
1839
1530
1520
1825
2611
3185
2944
2672
2288
1914
1804
1797
1837
1883
1904
1913
1920
1919
1915
1926
1932
1926
1926
1935
1926
1917
1920
1919
1904
1909
1908
1894
1897
1882
1863
1856
1869
1847
1836
1862
1866
1872
1890
1901
1904
1926
1949
1966
1975
1987
1995
1997
1997
2000
2000
2002
2000
1994
2000
1995
1998
1995
2011
2003
2013
2013
2015
2002
2011
2000
1995
2003
2003
2000
1987
1987
1979
1971
1971
1977
1971
1967
1968
1963
1968
1954
1953
1963
1963
1959
1955
1966
1957
1952
1959
1959
1954
1954
1953
1943
1947
1945
1936
1939
1946
1936
1936
1936
1935
1937
1955
1969
1982
1986
1968
1936
1950
1938
1916
1911
1935
1930
1910
1913
1904
1893
1904
1900
1898
1904
1904
1885
1810
1742
1425
1296
1545
2487
3132
2891
2529
2075
1783
1705
1732
1788
1821
1807
1838
1846
1830
1840
1854
1856
1856
1855
1856
1856
1858
1863
1875
1843
1857
1840
1837
1826
1812
1812
1805
1802
1823
1803
1811
1812
1825
1845
1855
1872
1873
1887
1898
1904
1916
1904
1913
1925
1919
1919
1917
1910
1919
1901
1904
1903
1910
1920
1915
1914
1911
1906
1906
1917
1906
1921
1920
1915
1919
1907
1903
1908
1911
1907
1904
1904
1905
1902
1904
1901
1895
1909
1897
1889
1894
1894
1879
1883
1891
1888
1883
1895
1887
1878
1902
1947
1963
1979
1984
1991
1975
1954
1927
1897
1899
1878
1859
1852
1849
1840
1841
1841
1843
1840
1843
1841
1795
1739
1616
1241
1277
1730
2665
3046
2671
2309
1941
1746
1654
1712
1760
1791
1799
1813
1847
1811
1825
1883
1829
1840
1829
1826
1833
1838
1834
1826
1840
1836
1825
1823
1820
1807
1803
1803
1798
1799
1808
1815
1833
1836
1849
1870
1884
1904
1907
1916
1920
1925
1926
1935
1930
1929
1930
1875
1914
1920
1916
1914
1921
1920
1919
1917
1951
1917
1927
1923
1914
1920
1930
1926
1919
1920
1918
1918
1921
1920
1908
1889
1978
1913
1909
1905
1904
1909
1905
1902
1895
1897
1906
1902
1900
1904
1905
1911
1907
1905
1906
1915
1907
1906
1905
1909
1907
1906
1907
1899
1894
1904
1903
1901
1904
1899
1898
1904
1904
1906
1913
1922
1922
1936
1962
1954
1949
1918
1932
1918
1906
1911
1914
1919
1918
1911
1911
1910
1898
1904
1897
1895
1903
1877
1799
1743
1450
1310
1565
2387
3055
2791
2478
2122
1814
1711
1743
1794
1815
1845
1853
1861
1869
1872
1870
1863
1870
1872
1882
1885
1891
1872
1871
1868
1859
1863
1858
1849
1846
1836
1833
1829
1835
1839
1842
1856
1865
1872
1890
1902
1907
1918
1931
1936
1951
1952
1952
1943
1951
1941
1939
1941
1939
1938
1939
1947
1943
1949
1954
1939
1941
1951
1939
1935
1935
1936
1931
1997
1929
1926
1927
1958
1918
1914
1926
1922
1921
1929
1926
1923
1922
1914
1915
1899
1919
1906
1911
1915
1922
1906
1905
1899
1901
1913
1906
1904
1913
1909
1909
1911
1919
1903
1901
1907
1910
1904
1908
1911
1918
1930
1950
1936
1919
1887
1886
1881
1886
1895
1890
1887
1882
1871
1879
1876
1872
1872
1869
1863
1872
1858
1774
1696
1394
1323
1632
2460
3019
2737
2462
2107
1792
1664
1686
1744
1778
1807
1808
1810
1813
1818
1822
1839
1834
1825
1827
1834
1825
1834
1827
1819
1814
1819
1808
1795
1792
1787
1773
1771
1777
1778
1797
1808
1808
1815
1833
1853
1859
1883
1888
1899
1915
1922
1920
1915
1923
1906
1913
1919
1927
1924
1927
1933
1935
1943
1938
1936
1950
1940
1933
1936
1934
1927
1919
1927
1914
1904
1918
1920
1915
1913
1914
1920
1927
1921
1910
1920
1921
1916
1920
1915
1906
1907
1923
1911
1907
1935
1934
1929
1917
1918
1923
1929
1914
1914
1921
1931
1913
1930
1943
1954
1957
1965
1929
1905
1925
1919
1915
1919
1921
1914
1924
1930
1906
1908
1908
1904
1904
1910
1931
1904
1825
1744
1457
1443
1763
2685
3085
2875
2624
2174
1856
1735
1717
1761
1814
1839
1858
1866
1861
1860
1872
1877
1875
1882
1890
1882
1885
1883
1879
1872
1874
1874
1877
1861
1843
1839
1840
1835
1833
1835
1841
1844
1857
1875
1889
1917
1954
1967
1990
2015
2025
2006
2017
2030
2027
2027
2032
2027
2029
2039
2043
2042
2053
2057
2060
2062
2063
2054
2059
2041
2057
2045
2032
2046
2043
2047
2040
2036
2035
2034
2034
2043
2041
2042
2066
2044
2043
2047
2043
2045
2047
2063
2064
2063
2077
2111
2130
2144
2160
2160
2154
2126
2090
2067
2063
2032
2014
2012
2011
2003
2000
2000
2000
2005
2015
2010
1958
1895
1723
1427
1498
2099
3008
3241
2848
2389
2002
1814
1802
1856
1906
1920
1930
1943
1942
1938
1947
1951
1951
1957
1963
1955
1966
1961
1957
1957
1957
1946
1933
1922
1921
1907
1898
1898
1882
1877
1893
1898
1899
1917
1919
1936
1955
1968
1989
2000
1936
1999
2000
1999
1999
1987
1987
1977
1963
1968
1978
1968
1970
1972
1966
1964
1965
1957
1963
1959
1962
1957
1983
1953
1943
1946
1945
1936
1936
1933
1935
1927
1927
1919
1917
1927
1925
1918
1917
1920
1917
1915
1914
1904
1914
1904
1903
1904
1906
1899
1893
1895
1899
1885
1887
1886
1885
1879
1881
1873
1879
1883
1881
1879
1879
1872
1879
1882
1872
1874
1872
1871
1870
1874
1878
1875
1906
1922
1919
1879
1873
1886
1854
1850
1857
1863
1863
1861
1856
1855
1856
1841
1849
1854
1858
1847
1808
1750
1648
1283
1286
1677
2576
2992
2647
2322
1963
1709
1675
1715
1753
1779
1800
1817
1814
1813
1813
1808
1809
1817
1814
1808
1824
1822
1822
1824
1819
1807
1809
1805
1797
1790
1793
1789
1792
1791
1793
1805
1810
1820
1834
1842
1843
1856
1883
1885
1888
1891
1891
1895
1892
1890
1891
1888
1887
1895
1890
1897
1902
1899
1904
1907
1910
1907
1919
1922
1920
1934
1936
1937
1931
1936
1921
1921
1930
1920
1932
1931
1934
1923
1926
1925
1919
1921
1927
1931
1925
1923
1921
1921
1930
1922
1919
1923
1925
1918
1920
1914
1917
1923
1920
1918
1920
1926
1913
1919
1923
1925
1920
1927
1936
1932
1931
1923
1924
1927
1935
1939
1963
1975
1958
1922
1933
1926
1909
1918
1922
1925
1924
1920
1907
1898
1911
1905
1903
1909
1907
1901
1833
1792
1581
1310
1372
2033
2890
3004
2625
2256
1905
1733
1714
1779
1815
1834
1849
1851
1857
1871
1874
1860
1866
1863
1871
1866
1857
1862
1863
1863
1858
1856
1846
1840
1823
1819
1819
1807
1805
1822
1815
1823
1837
1840
1849
1869
1894
1891
1904
1918
1917
1920
1926
1921
1915
1919
1912
1904
1904
1913
1909
1907
1907
1904
1908
1916
1914
1904
1910
1904
1907
1913
1904
1895
1904
1903
1890
1887
1885
1885
1878
1893
1886
1887
1891
1872
1806
1872
1867
1870
1859
1858
1853
1856
1858
1843
1840
1855
1856
1856
1859
1854
1847
1840
1817
1838
1831
1839
1857
1810
1845
1846
1846
1856
1855
1833
1842
1838
1833
1827
1840
1841
1840
1844
1844
1824
1829
1840
1846
1855
1843
1819
1840
1867
1865
1858
1840
1793
1793
1812
1819
1812
1824
1840
1846
1843
1842
1835
1828
1842
1845
1842
1843
1840
1791
1755
1619
1300
1396
1866
2672
2891
2646
2352
1970
1701
1648
1669
1713
1757
1774
1782
1786
1792
1794
1805
1792
1788
1796
1808
1798
1792
1789
1793
1792
1788
1781
1790
1776
1758
1758
1751
1757
1760
1758
1771
1780
1799
1806
1826
1827
1844
1856
1872
1882
1879
1878
1883
1890
1907
1913
1887
1883
1904
1906
1905
1906
1907
1911
1904
1911
1910
1904
1906
1904
1907
1914
1910
1904
1904
1903
1900
1913
1920
1895
1898
1907
1899
1887
1905
1904
1895
1894
1904
1904
1907
1909
1914
1909
1915
1913
1907
1909
1910
1904
1900
1906
1921
1921
1904
1904
1915
1911
1905
1917
1918
1935
1962
1956
1936
1931
1941
1934
1914
1915
1923
1919
1920
1921
1903
1901
1904
1916
1925
1920
1909
1872
1815
1772
1435
1426
1747
2576
3089
2817
2531
2157
1820
1727
1728
1774
1811
1831
1843
1851
1855
1855
1850
1855
1866
1863
1859
1839
1870
1865
1856
1859
1855
1851
1846
1855
1829
1819
1815
1865
1810
1814
1815
1817
1834
1843
1846
1872
1898
1918
1936
1948
1961
1967
1968
1972
1974
1974
1969
1968
1975
1974
1971
1971
1969
1966
1974
1969
1971
1964
1970
1970
1970
1967
1973
1968
1966
1965
1951
1947
1955
1950
1948
1949
1946
1946
1943
1943
1938
1949
1939
1936
1939
1940
1950
1936
1938
1942
1937
1941
1938
1933
1932
1945
1989
2017
2028
2042
2054
2021
2000
1968
1959
1947
1931
1917
1904
1899
1904
1898
1887
1891
1903
1907
1893
1829
1776
1614
1290
1389
1930
2835
3041
2658
2293
1923
1723
1702
1767
1811
1838
1857
1866
1859
1869
1873
1872
1882
1883
1873
1875
1886
1889
1890
1905
1886
1875
1872
1870
1863
1866
1856
1854
1844
1857
1870
1876
1883
1899
1906
1934
1955
1958
1968
1975
1974
1993
1997
1984
1987
2000
1990
1998
2001
1999
1984
1993
1997
1991
1998
2006
1994
1997
1999
1994
2002
2002
2002
1996
2000
2001
2004
2007
2011
1998
1999
2000
1995
1999
2007
1997
1995
2002
2000
1991
1995
2000
1997
1995
2001
1999
2000
2001
1993
1989
1998
2000
1990
2000
1999
1998
1997
2002
2000
2005
2002
2007
2003
2012
2000
2006
2001
2061
2005
2007
2011
2005
2009
2006
2027
2045
2053
2046
2009
2029
2023
1993
1988
2000
1996
1997
1998
1984
1984
1991
1979
1977
1984
1978
1954
1879
1835
1478
1379
1615
2384
3152
2896
2558
2197
1871
1785
1808
1856
1881
1898
1907
1908
1909
1919
1917
1918
1918
1886
1919
1914
1911
1911
1911
1907
1894
1886
1885
1873
1866
1863
1857
1847
1850
1852
1856
1870
1875
1888
1899
1907
1922
1919
1931
1935
1939
1937
1939
1936
1936
1937
1935
1926
1933
1934
1927
1931
1933
1920
1923
1921
1914
1918
1930
1923
1911
1919
1914
1904
1907
1906
1902
1902
1902
1901
1893
1897
1889
1877
1885
1883
1885
1879
1881
1875
1874
1873
1866
1856
1859
1858
1869
1872
1867
1858
1871
1862
1856
1855
1859
1859
1862
1854
1846
1826
1857
1914
1858
1855
1858
1857
1872
1901
1907
1904
1872
1857
1845
1840
1839
1843
1851
1843
1838
1842
1838
1768
1832
1830
1833
1836
1833
1776
1717
1495
1232
1333
2032
2864
2911
2581
2184
1811
1658
1653
1716
1752
1775
1776
1776
1785
1793
1792
1799
1807
1792
1793
1809
1807
1808
1808
1792
1777
1773
1757
1747
1755
1755
1734
1734
1729
1743
1745
1769
1776
1783
1799
1813
1818
1841
1862
1870
1872
1875
1876
1941
1888
1891
1889
1884
1874
1865
1871
1895
1882
1884
1887
1872
1884
1895
1884
1872
1876
1864
1872
1877
1871
1863
1856
1856
1859
1853
1861
1863
1856
1856
1854
1855
1869
1866
1868
1872
1858
1857
1858
1855
1859
1867
1869
1852
1855
1853
1859
1864
1872
1861
1850
1859
1866
1859
1855
1856
1856
1859
1869
1856
1862
1867
1879
1890
1900
1895
1857
1868
1872
1858
1861
1871
1872
1862
1856
1840
1840
1843
1856
1867
1859
1846
1829
1783
1744
1516
1308
1520
2186
2913
2903
2610
2282
1904
1691
1638
1691
1741
1753
1783
1802
1799
1789
1803
1811
1825
1828
1822
1793
1808
1833
1823
1813
1813
1803
1791
1795
1777
1771
1786
1779
1774
1776
1777
1779
1794
1806
1822
1829
1862
1878
1980
1925
1927
1931
1945
1945
1939
1936
1937
1938
1950
1954
1968
1967
1964
1963
1965
1968
1968
1965
1968
1968
1953
1949
1952
1953
1937
1958
1941
1930
1939
1936
1925
1933
2003
1935
1942
1933
1939
1934
1934
1942
1942
1946
1936
1938
1941
1969
1995
2025
2034
2036
2047
2023
1996
1966
1968
1936
1914
1912
1904
1903
1906
1904
1898
1906
1904
1898
1887
1827
1787
1563
1363
1584
2267
3056
2955
2635
2277
1909
1712
1702
1756
1801
1823
1839
1839
1843
1859
1858
1867
1877
1872
1867
1877
1877
1874
1871
1878
1863
1857
1858
1843
1836
1835
1808
1794
1805
1807
1806
1820
1839
1851
1865
1891
1915
1931
1951
1969
1977
1988
1990
1987
1997
1998
1995
1997
1991
1993
1999
1998
1999
1990
1991
1987
1981
1985
2019
1985
1982
1984
1969
1970
1979
1971
1953
1959
1955
1955
1966
1965
1955
1960
1951
1955
1963
1969
1963
1951
1953
1954
1955
1964
1968
1959
1957
1947
1949
1983
2005
2033
2058
2042
2032
2001
1990
1966
1948
1936
1869
1899
1908
1897
1875
1894
1885
1887
1891
1898
1863
1773
1721
1376
1296
1607
2476
3107
2786
2442
1995
1739
1761
1722
1776
1808
1826
1821
1832
1845
1842
1845
1849
1851
1855
1861
1858
1857
1854
1857
1846
1845
1851
1833
1827
1826
1818
1810
1819
1819
1815
1833
1831
1842
1863
1872
1893
1904
1919
1927
1931
1941
1947
1936
1936
1936
1933
1936
1934
1930
1925
1927
1927
1932
1923
1921
1923
1937
1923
1927
1938
1931
1927
1923
1920
1916
1919
1925
1917
1915
1914
1914
1911
1920
1923
1914
1911
1911
1905
1910
1914
1907
1904
1908
1904
1904
1906
1899
1894
1894
1899
1904
1901
1903
1893
1901
1907
1894
1889
1904
1899
1891
1899
1898
1885
1894
1903
1893
1903
1898
1894
1895
1897
1904
1902
1897
1889
1895
1905
1906
1904
1916
1931
1950
1950
1920
1903
1906
1899
1881
1884
1895
1891
1889
1887
1888
1875
1883
1890
1891
1898
1903
1863
1803
1691
1325
1330
1725
2598
3005
2690
2384
2013
1762
1725
1771
1813
1841
1856
1861
1871
1866
1867
1872
1875
1877
1879
1887
1874
1873
1872
1872
1872
1872
1861
1856
1849
1847
1849
1845
1846
1843
1853
1856
1869
1882
1895
1901
1909
1934
1947
1947
1957
1957
1950
1957
1961
1957
1955
1959
1962
1958
1957
1959
1955
1959
1963
1963
1970
1968
1966
1970
1972
1970
1968
1969
1966
1959
1959
1962
1946
1947
1953
1945
1943
1951
1939
1937
1945
1950
1950
1955
1943
1941
1945
1872
1943
1943
1953
1938
1942
1949
1936
1922
1926
1931
1936
1937
1968
1939
1937
1943
1936
1949
1943
1939
1937
1959
1935
1928
1936
1941
1938
1942
1943
1951
1972
1978
1946
1924
1952
1926
1904
1920
1936
1928
1936
1920
1915
1919
1920
1920
1925
1929
1927
1897
1835
1780
1466
1363
1648
2446
3040
2790
2486
2129
1840
1731
1745
1808
1842
1853
1868
1871
1865
1870
1876
1872
1869
1874
1865
1869
1873
1877
1872
1873
1858
1841
1848
1849
1843
1834
1817
1808
1814
1830
1830
1840
1841
1857
1859
1872
1895
1920
1935
1938
1931
1953
1950
1939
1942
1936
1935
1936
1938
1937
1931
1938
1942
1937
1947
1950
1952
1945
1943
1945
1927
1930
1929
1920
1920
1923
1923
1931
1917
1923
1942
1936
1900
1897
1906
1900
1899
1909
1911
1907
1909
1919
1904
1904
1911
1901
1904
1915
1904
1904
1904
1898
1904
1904
1897
1887
1883
1902
1898
1883
1891
1890
1901
1908
1898
1935
1922
1914
1878
1904
1890
1874
1882
1898
1900
1889
1899
1920
1889
1879
1883
1884
1875
1887
1862
1792
1719
1424
1425
1840
2663
3050
2821
2507
2112
1813
1696
1699
1747
1799
1807
1801
1817
1820
1826
1826
1837
1842
1841
1840
1831
1846
1846
1840
1830
1828
1817
1812
1808
1805
1791
1787
1779
1771
1781
1794
1799
1809
1823
1843
1857
1880
1894
1922
1936
1945
1945
1951
1955
1952
1941
1947
1936
1937
1953
1952
1951
1965
1971
1969
1968
1966
1967
1966
1959
1950
1954
1945
1948
1951
1943
1936
1934
1936
1931
1919
1923
1924
1917
1923
1930
1933
1921
1922
1922
1914
1926
1913
1917
1924
1925
1915
1920
1920
1915
1914
1917
1915
1906
1911
1909
1909
1905
1905
1906
1906
1917
1918
1946
1965
1959
1919
1911
1915
1899
1890
1900
1904
1901
1897
1876
1881
1887
1875
1874
1879
1884
1873
1854
1779
1680
1339
1323
1682
2569
3056
2718
2377
1997
1733
1685
1728
1770
1788
1818
1838
1817
1831
1841
1779
1833
1790
1840
1841
1841
1831
1835
1833
1824
1819
1818
1823
1810
1806
1803
1795
1794
1799
1808
1805
1809
1820
1839
1846
1861
1871
1885
1895
1904
1916
1911
1905
1915
1909
1907
1907
1915
1915
1910
1905
1907
1904
1910
1913
1907
1910
1921
1918
1918
1924
1919
1915
1920
1920
1909
1920
1926
1914
1926
1918
1911
1913
1922
1915
1904
1910
1906
1903
1906
1911
1901
1906
1904
1904
1901
1905
1899
1899
1902
1893
1903
1903
1891
1901
1906
1904
1899
1902
1904
1893
1903
1903
1895
1903
1906
1911
1915
1936
1957
1952
1936
1911
1910
1894
1890
1894
1904
1903
1903
1891
1894
1900
1890
1885
1892
1892
1903
1888
1808
1765
1490
1296
1498
2256
2989
2832
2509
2160
1840
1719
1737
1787
1819
1846
1851
1851
1861
1858
1861
1872
1878
1872
1871
1879
1873
1870
1870
1871
1863
1861
1863
1859
1849
1840
1830
1834
1840
1831
1854
1861
1867
1911
1894
1897
1922
1936
1945
1949
1951
1963
1953
1966
1962
1945
1939
1946
1949
1940
1948
1942
1937
1947
1958
1958
1959
1962
1950
1959
1968
1962
1951
1950
1951
1937
1961
1954
1937
1937
1943
1947
1947
1946
1935
1936
1934
1933
1936
1936
1946
1939
1936
1934
1920
1932
1937
1937
1935
1934
1935
1936
1939
1928
1929
1935
1936
1927
1925
1935
1926
1930
1935
1924
1923
1936
1927
1931
1936
1936
1936
1950
1969
1979
1968
1936
1936
1936
1920
1910
1919
1921
1915
1907
1915
1913
1909
1910
1921
1918
1919
1915
1854
1794
1588
1318
1393
2068
2917
2991
2650
2265
1915
1751
1739
1782
1827
1853
1853
1858
1862
1869
1862
1872
1874
1872
1873
1872
1867
1866
1872
1872
1859
1862
1862
1854
1855
1839
1825
1823
1829
1826
1840
1853
1869
1875
1885
1904
1906
1927
1890
1967
1973
1968
1958
1963
1970
1926
1978
1977
1968
1969
1977
1984
1981
1995
1999
2007
2003
2001
1984
1997
1991
1998
1996
2002
1999
1976
1986
1989
1980
1989
1986
1984
2000
2009
1989
1995
1993
1989
1989
2000
1999
2000
2001
1997
1998
1995
2003
1995
1997
1997
1998
2009
2010
2007
2007
2003
2000
2000
1991
1989
2000
2000
2005
2005
2000
2023
2055
2033
2013
2000
2018
2013
2000
2000
2003
2000
2010
1996
1981
1979
1978
1990
1989
1998
1991
1953
1872
1809
1523
1491
1804
2743
3154
2926
2666
2213
1889
1758
1764
1837
1865
1875
1890
1887
1905
1902
1904
1915
1911
1905
1906
1890
1880
1890
1902
1894
1885
1875
1870
1853
1856
1856
1839
1818
1821
1821
1824
1835
1835
1858
1858
1870
1891
1923
1935
1951
1958
1958
1975
1984
1978
1967
1970
1970
1968
1966
1959
1950
1961
1968
1973
1968
1973
1955
1955
1959
1952
1919
1939
1942
1930
1919
1919
1920
1921
1921
1908
1906
1910
1930
1911
1933
1904
1904
1906
1910
1906
1905
1909
1904
1915
1913
1914
1904
1909
1909
1907
1903
1904
1906
1903
1914
1931
1952
1968
1954
1913
1923
1923
1894
1893
1910
1904
1904
1897
1897
1886
1895
1881
1883
1895
1900
1888
1827
1779
1558
1316
1441
1983
2972
3002
2647
2292
1872
1703
1685
1739
1794
1803
1820
1834
1823
1815
1827
1837
1824
1829
1833
1833
1842
1838
1818
1839
1831
1821
1810
1808
1797
1787
1786
1776
1774
1776
1786
1790
1809
1823
1823
1840
1869
1885
1894
1905
1919
1921
1899
1937
1935
1933
1938
1923
1918
1927
1923
1930
1930
1923
1931
1934
1936
1931
1936
1936
1929
1927
1936
1923
1927
1921
1914
1914
1919
1906
1902
1904
1904
1900
1904
1904
1893
1894
1904
1901
1889
1895
1899
1898
1904
1888
1890
1891
1879
1879
1888
1885
1873
1873
1879
1876
1873
1882
1875
1875
1887
1887
1897
1930
1943
1918
1882
1894
1890
1857
1867
1872
1878
1878
1865
1859
1866
1872
1872
1870
1872
1873
1877
1830
1765
1565
1281
1338
1968
2832
2958
2618
2226
1888
1681
1696
1759
1798
1810
1829
1821
1831
1852
1840
1838
1839
1840
1834
1837
1840
1835
1827
1830
1823
1821
1817
1808
1795
1795
1796
1785
1774
1792
1790
1795
1809
1818
1821
1840
1867
1875
1889
1904
1905
1906
1914
1898
1905
1899
1894
1897
1898
1890
1899
1904
1904
1898
1902
1906
1904
1904
1917
1904
1910
1916
1904
1909
1918
1913
1905
1915
1906
1910
1915
1899
1945
1903
1917
1904
1904
1907
1915
1904
1908
1913
1895
1906
1911
1901
1903
1904
1905
1902
1903
1895
1898
1904
1904
1904
1903
1904
1907
1904
1909
1901
1904
1892
1904
1906
1930
1938
1953
1947
1920
1919
1915
1904
1898
1918
1911
1904
1904
1898
1893
1886
1891
1894
1901
1907
1899
1825
1779
1600
1312
1407
2000
2845
2965
2588
2267
1915
1744
1729
1780
1824
1843
1847
1850
1856
1857
1863
1871
1859
1866
1870
1872
1874
1870
1872
1859
1854
1856
1849
1840
1843
1835
1827
1826
1813
1811
1826
1837
1831
1844
1862
1879
1889
1904
1935
1917
1923
1923
1927
1932
1936
1921
1921
1922
1921
1919
1926
1935
1932
1941
1939
1933
1927
1930
1936
1930
1936
1929
1922
1920
1933
1920
1925
1929
1918
1919
1912
1914
1910
1914
1904
1902
1914
1910
1916
1927
1920
1904
1893
1904
1897
1893
1898
1891
1890
1903
1911
1899
1901
1914
1895
1893
1891
1894
1904
1909
1906
1905
1902
1823
1904
1904
1902
1907
1901
1901
1910
1922
1926
1915
1903
1869
1887
1890
1889
1904
1904
1893
1895
1883
1879
1882
1874
1882
1897
1887
1872
1865
1799
1729
1409
1391
1687
2478
3024
2800
2528
2176
1809
1699
1700
1752
1787
1811
1827
1824
1825
1822
1841
1834
1846
1846
1854
1850
1831
1840
1839
1838
1840
1835
1821
1810
1804
1792
1790
1789
1783
1786
1803
1808
1823
1835
1845
1866
1872
1904
1925
1926
1936
1952
1950
1949
1947
1942
1948
1965
1962
1957
1969
1975
1978
1987
1968
1963
1975
1979
1959
1974
1985
1971
1966
1968
1956
1946
1952
1938
1933
1937
1941
1939
1942
1943
1936
1938
1938
1936
1936
1942
1943
1951
1962
1950
1938
1936
1942
1943
1950
1946
1939
1936
1946
1947
1958
1982
2005
2000
1984
1959
1968
1950
1936
1935
1939
1942
1936
1936
1941
1928
1933
1934
1931
1934
1940
1919
1837
1775
1499
1390
1744
2602
3175
2911
2547
2174
1856
1751
1776
1813
1847
1877
1891
1894
1901
1892
1887
1904
1904
1903
1904
1904
1890
1898
1894
1895
1887
1875
1871
1853
1853
1839
1840
1840
1831
1828
1840
1853
1856
1862
1884
1901
1924
1941
1959
1967
1987
1983
1982
1986
1985
1984
1984
1979
1984
1984
1987
1982
1978
1985
1984
1995
2000
1989
1994
1993
1996
1989
1986
1989
1979
1975
1981
1979
1973
1969
1962
1964
1968
1971
1967
1968
1968
1961
1962
1967
1963
1951
1962
1961
1952
1963
1955
1949
1944
1957
1952
1949
1942
1951
1948
1943
1942
1946
1953
1950
1948
1969
1993
1986
1954
1947
1940
1924
1921
1927
1936
1933
1926
1910
1917
1922
1907
1910
1917
1917
1910
1888
1806
1693
1360
1328
1786
2686
3070
2742
2357
1985
1769
1715
1771
1815
1838
1856
1862
1866
1862
1867
1863
1873
1872
1869
1865
1872
1863
1862
1872
1865
1863
1855
1841
1826
1841
1831
1814
1823
1814
1812
1831
1841
1841
1853
1862
1889
1899
1906
1910
1909
1910
1918
1906
1909
1904
1906
1904
1905
1911
1903
1905
1901
1904
1906
1907
1901
1903
1903
1904
1898
1905
1905
1904
1899
1904
1891
1898
1903
1902
1902
1897
1895
1893
1900
1888
1885
1884
1893
1889
1886
1882
1896
1886
1897
1893
1892
1892
1885
1885
1897
1890
1889
1897
1889
1890
1887
1895
1889
1888
1893
1887
1891
1910
1936
1943
1954
1923
1904
1918
1915
1879
1900
1914
1903
1893
1904
1901
1891
1908
1904
1894
1906
1906
1883
1805
1751
1389
1300
1584
2405
3071
2794
2478
2115
1793
1733
1766
1824
1845
1858
1874
1879
1882
1889
1890
1899
1903
1904
1897
1898
1899
1899
1887
1891
1889
1883
1878
1878
1870
1857
1865
1857
1861
1868
1883
1883
1890
1907
1920
1935
1960
1970
1978
1979
1984
1987
1989
1987
1984
1990
1995
1985
1995
2009
2000
1994
1997
1995
1995
2000
1995
1990
1987
1991
1991
1996
2000
1994
1993
1985
1993
1991
2002
1992
1979
1971
1968
1972
1962
1965
1966
1962
1957
1954
1954
1958
1962
1948
1952
1942
1938
1949
1939
1936
1973
1942
1947
1939
1934
1931
1936
1935
1936
1921
1932
1930
1933
1936
1943
1945
1938
1936
1949
1968
1970
1947
1925
1940
1926
1911
1932
1921
1914
1919
1918
1897
1894
1899
1891
1899
1902
1900
1863
1790
1730
1420
1360
1691
2503
2992
2712
2446
2088
1799
1683
1691
1743
1779
1816
1805
1816
1810
1818
1818
1818
1823
1816
1810
1809
1813
1823
1826
1819
1818
1799
1795
1783
1785
1773
1764
1761
1774
1785
1779
1770
1782
1804
1811
1825
1839
1856
1888
1887
1872
1876
1891
1889
1873
1892
1889
1878
1891
1889
1881
1883
1873
1885
1894
1897
1893
1885
1899
1889
1872
1873
1887
1883
1890
1857
1851
1875
1873
1858
1853
1861
1870
1872
1863
1862
1859
1873
1889
1872
1861
1863
1870
1853
1861
1866
1866
1871
1872
1870
1875
1867
1872
1874
1883
1876
1883
1915
1915
1899
1871
1903
1902
1877
1869
1872
1879
1875
1869
1869
1875
1876
1883
1883
1878
1874
1870
1802
1764
1535
1357
1585
2276
2973
2914
2624
2277
1911
1716
1683
1727
1767
1791
1809
1811
1827
1837
1840
1842
1840
1837
1831
1842
1841
1835
1846
1840
1840
1834
1833
1808
1802
1788
1775
1773
1774
1763
1759
1781
1791
1798
1824
1841
1859
1900
1920
1930
1945
1943
1950
1945
1954
1946
1939
1950
1954
1947
1954
1957
1949
1963
1967
1965
1956
1953
1954
1952
1970
1968
1952
1957
1956
1943
1935
1935
1934
1936
1939
