-2.502836012762642108e-03
3.383814711949422772e-03
0.000000000000000000e+00
5.886650724712065748e-03
2.354660289884825952e-02
0.000000000000000000e+00
0.000000000000000000e+00
0.000000000000000000e+00
5.886650724712061411e-03
0.000000000000000000e+00
5.886650724712068350e-03
2.354660289884825258e-02
0.000000000000000000e+00
2.354660289884825952e-02
-1.648262202919378305e-01
5.886650724712061411e-03
0.000000000000000000e+00
-5.886650724712061411e-03
0.000000000000000000e+00
5.886650724712075289e-03
1.765995217413619811e-02
0.000000000000000000e+00
1.765995217413619811e-02
4.120655507298447151e-02
-1.765995217413618423e-02
3.531990434827238234e-02
3.531990434827238234e-02
2.943325362356033481e-02
4.120655507298447151e-02
4.120655507298447151e-02
6.475315797183270328e-02
2.354660289884827340e-02
5.297985652240858045e-02
1.765995217413621199e-02
1.177330144942412282e-02
-5.886650724712075289e-03
-3.531990434827238234e-02
-1.530529188425136800e-01
-1.236196652189533451e-01
-1.118463637695292223e-01
-1.295063159436654343e-01
-1.765995217413619534e-01
-1.765995217413619534e-01
-1.530529188425137077e-01
-1.707128710166498919e-01
-4.709320579769651904e-02
-1.177330144942412282e-02
0.000000000000000000e+00
0.000000000000000000e+00
0.000000000000000000e+00
0.000000000000000000e+00
0.000000000000000000e+00
4.709320579769649129e-02
0.000000000000000000e+00
2.354660289884824564e-02
1.530529188425137077e-01
1.530529188425137077e-01
1.412796173930895849e-01
1.765995217413619534e-01
1.824861724660740148e-01
1.765995217413619534e-01
2.413526797131946289e-01
2.825592347861791698e-01
2.178060768143463832e-01
2.472393304379066903e-01
2.119194260896343218e-01
2.472393304379066903e-01
3.002191869603153540e-01
2.884458855108912312e-01
2.825592347861791698e-01
2.825592347861791698e-01
3.296524405838755500e-01
3.119924884097394768e-01
2.707859333367550470e-01
2.825592347861791698e-01
3.061058376850273044e-01
2.766725840614671084e-01
2.472393304379066903e-01
2.531259811626187517e-01
1.883728231907860762e-01
1.883728231907860762e-01
1.942594739154981376e-01
1.942594739154981376e-01
2.001461246402101990e-01
2.001461246402101990e-01
2.060327753649222604e-01
2.001461246402101990e-01
2.236927275390584446e-01
1.824861724660740148e-01
1.177330144942413392e-01
1.589395695672257691e-01
1.765995217413619534e-01
1.177330144942413392e-01
1.471662681178016463e-01
5.297985652240855270e-02
-5.886650724712061411e-03
2.943325362356030706e-02
7.652645942125690937e-02
4.709320579769649129e-02
-5.886650724712061411e-03
5.886650724712061411e-03
-3.531990434827236847e-02
-5.297985652240855270e-02
0.000000000000000000e+00
1.707128710166498919e-01
-2.943325362356030706e-02
0.000000000000000000e+00
-1.765995217413618423e-02
-4.120655507298442988e-02
-4.709320579769649129e-02
-3.531990434827236847e-02
-4.709320579769649129e-02
-8.241311014596897078e-02
0.000000000000000000e+00
2.943325362356030706e-02
7.652645942125679834e-02
2.531259811626187517e-01
2.648992826120428745e-01
8.241311014596897078e-02
-5.297985652240855270e-02
5.297985652240855270e-02
0.000000000000000000e+00
0.000000000000000000e+00
0.000000000000000000e+00
0.000000000000000000e+00
0.000000000000000000e+00
-2.354660289884824564e-02
-5.297985652240860821e-02
-1.118463637695292223e-01
-1.236196652189533451e-01
-1.177330144942413115e-01
-1.118463637695292223e-01
-2.943325362356033481e-02
-7.652645942125688161e-02
-1.177330144942413115e-01
-4.356121536286928220e-01
-8.064711492855529684e-01
-2.001461246402102212e+00
-3.479010578304830403e+00
-2.943325362356032038e+00
6.475315797183271715e-02
6.004383739206306636e+00
6.763761682694162225e+00
4.844713546438029539e+00
2.890345505833623818e+00
4.002922492804204535e-01
-5.710051202970702899e-01
-6.416449289936150269e-01
-3.473123927580118453e-01
-1.471662681178016463e-01
-8.829976087068092117e-02
-1.177330144942412282e-02
-1.177330144942412282e-02
0.000000000000000000e+00
1.765995217413623974e-02
-5.886650724712061411e-03
-5.886650724712061411e-02
-2.943325362356030706e-02
5.886650724712061411e-03
-2.943325362356030706e-02
-7.063980869654473693e-02
-8.241311014596885975e-02
-1.530529188425137077e-01
-1.942594739154981376e-01
-2.648992826120428745e-01
-2.825592347861790588e-01
-3.002191869603152430e-01
-2.943325362356031816e-01
-3.296524405838756611e-01
-4.709320579769651349e-01
-5.474585173982220443e-01
-5.180252637746617372e-01
-4.768187087016773074e-01
-4.944786608758134916e-01
-4.591587565275410121e-01
-4.473854550781168893e-01
-3.473123927580118453e-01
-1.942594739154981376e-01
-1.236196652189534007e-01
-1.295063159436654621e-01
-1.059597130448172164e-01
7.063980869654473693e-02
1.707128710166498364e-01
1.589395695672257136e-01
2.295793782637705061e-01
1.942594739154981376e-01
1.765995217413618978e-01
2.354660289884825675e-01
2.178060768143463277e-01
1.589395695672257136e-01
2.001461246402102545e-01
1.530529188425137077e-01
1.648262202919378305e-01
1.883728231907861317e-01
1.883728231907861317e-01
1.471662681178016463e-01
1.295063159436654621e-01
1.707128710166498919e-01
2.060327753649223159e-01
1.707128710166498919e-01
2.236927275390585002e-01
1.707128710166498919e-01
1.707128710166498919e-01
1.942594739154981931e-01
1.824861724660740148e-01
1.059597130448172164e-01
1.471662681178016463e-01
1.707128710166498919e-01
1.118463637695292778e-01
1.118463637695292778e-01
1.412796173930895849e-01
4.120655507298442988e-02
1.765995217413618423e-02
6.475315797183278654e-02
0.000000000000000000e+00
-5.886650724712061411e-03
5.886650724712072513e-02
0.000000000000000000e+00
-5.297985652240855270e-02
1.177330144942412282e-02
-3.531990434827236847e-02
-3.531990434827236847e-02
-1.177330144942412282e-02
-5.886650724712061411e-02
-7.652645942125679834e-02
-2.354660289884824564e-02
0.000000000000000000e+00
-9.418641159539298258e-02
-1.059597130448171054e-01
-2.354660289884824564e-02
-4.709320579769649129e-02
-1.236196652189532896e-01
-6.475315797183267552e-02
-5.297985652240855270e-02
5.886650724712061411e-03
-2.354660289884824564e-02
-4.709320579769649129e-02
-2.943325362356030706e-02
1.765995217413618423e-02
4.709320579769660231e-02
-5.297985652240855270e-02
-9.418641159539298258e-02
-7.063980869654473693e-02
-2.354660289884824564e-02
-4.709320579769649129e-02
-4.120655507298442988e-02
-2.943325362356030706e-02
-5.297985652240855270e-02
1.177330144942412282e-02
1.177330144942412282e-02
1.177330144942412282e-02
-1.177330144942412282e-02
-4.120655507298442988e-02
-5.886650724712061411e-03
8.241311014596897078e-02
1.883728231907860762e-01
2.119194260896343773e-01
2.060327753649222604e-01
5.297985652240855270e-02
-1.177330144942412282e-02
-6.475315797183267552e-02
-1.765995217413618423e-02
0.000000000000000000e+00
-7.652645942125679834e-02
2.354660289884824564e-02
1.883728231907860762e-01
1.177330144942413392e-01
1.177330144942413392e-01
1.589395695672257691e-01
6.475315797183267552e-02
1.000730623201051550e-01
1.295063159436654621e-01
1.707128710166498919e-01
1.707128710166498919e-01
1.883728231907860762e-01
1.765995217413619534e-01
-1.648262202919378305e-01
-4.709320579769652459e-01
-2.007347897126814384e+00
-2.972758615979592900e+00
-1.924934786980845303e+00
2.731405936266397827e+00
6.404675988486727256e+00
5.857217471088504546e+00
4.526834407303578445e+00
2.266360529014145087e+00
3.119924884097394768e-01
-6.769648333418875064e-01
-8.829976087068097668e-01
-7.122847376901598748e-01
-3.826322971062842138e-01
-2.236927275390584446e-01
-1.589395695672257691e-01
-1.295063159436654621e-01
-1.177330144942412282e-01
-1.412796173930894739e-01
-1.236196652189532896e-01
-4.709320579769649129e-02
-3.531990434827236847e-02
-4.709320579769649129e-02
-8.829976087068092117e-02
-5.297985652240855270e-02
-5.297985652240855270e-02
-7.063980869654473693e-02
-1.236196652189532896e-01
-1.589395695672256581e-01
-1.765995217413619534e-01
-1.589395695672257691e-01
-1.942594739154981376e-01
-2.884458855108912312e-01
-2.884458855108912312e-01
-3.296524405838756611e-01
-4.768187087016773074e-01
-3.944055985557083366e-01
-3.649723449321480295e-01
-3.708589956568600909e-01
-3.002191869603153540e-01
-2.531259811626188627e-01
-1.765995217413619534e-01
-1.059597130448172164e-01
-1.177330144942412282e-02
0.000000000000000000e+00
0.000000000000000000e+00
2.354660289884827340e-02
-2.354660289884827340e-02
0.000000000000000000e+00
1.177330144942412282e-02
1.765995217413619811e-02
2.943325362356032440e-02
1.177330144942412629e-02
2.354660289884825952e-02
3.531990434827238928e-02
8.241311014596891527e-02
-5.297985652240858045e-02
-5.297985652240858739e-02
4.120655507298445069e-02
3.531990434827238928e-02
1.177330144942412803e-02
-3.531990434827238928e-02
0.000000000000000000e+00
8.241311014596891527e-02
1.118463637695292501e-01
1.059597130448171609e-01
2.354660289884825952e-02
5.886650724712068350e-03
4.120655507298445763e-02
0.000000000000000000e+00
-1.471662681178016185e-01
0.000000000000000000e+00
-5.886650724712068350e-03
-1.000730623201050995e-01
-5.886650724712064880e-02
0.000000000000000000e+00
-2.354660289884826299e-02
0.000000000000000000e+00
-2.943325362356032787e-02
5.886650724712064880e-02
-1.648262202919378305e-01
7.652645942125685385e-02
1.000730623201050995e-01
7.063980869654476469e-02
7.652645942125685385e-02
5.886650724712064880e-02
8.829976087068097668e-02
9.418641159539303809e-02
4.179522014545566377e-01
8.829976087068097668e-02
7.063980869654476469e-02
8.241311014596888751e-02
7.652645942125685385e-02
4.709320579769651210e-02
8.241311014596888751e-02
5.297985652240858739e-02
-2.354660289884826299e-02
3.531990434827238928e-02
2.354660289884825258e-02
1.177330144942412976e-02
1.236196652189533451e-01
8.829976087068097668e-02
5.297985652240858739e-02
-1.177330144942412976e-02
0.000000000000000000e+00
2.943325362356032787e-02
8.829976087068097668e-02
8.829976087068097668e-02
5.297985652240858739e-02
-5.886650724712068350e-03
0.000000000000000000e+00
8.241311014596888751e-02
2.648992826120429300e-01
3.590856942074359681e-01
3.590856942074359681e-01
1.589395695672257414e-01
5.297985652240858739e-02
1.059597130448171609e-01
-1.765995217413619811e-02
-2.943325362356032787e-02
4.120655507298445763e-02
1.765995217413619811e-02
0.000000000000000000e+00
5.886650724712068350e-03
-1.765995217413619464e-02
-8.829976087068097668e-02
-7.652645942125683998e-02
-3.531990434827238928e-02
0.000000000000000000e+00
-1.765995217413619464e-02
-2.943325362356032440e-02
-5.886650724712064880e-02
-4.944786608758134361e-01
-6.769648333418873953e-01
-2.048554452199798703e+00
-3.237657898591635774e+00
-2.036781150750374358e+00
2.025007849300950458e+00
6.451769194284422859e+00
6.151550007324106950e+00
4.008809143528916152e+00
1.818975073936028197e+00
-1.236196652189533729e-01
-9.948439724763389336e-01
-1.106690336245868211e+00
-8.123578000102649188e-01
-5.651184695723582285e-01
-4.709320579769651904e-01
-4.238388521792686991e-01
-3.414257420332997839e-01
-3.414257420332997839e-01
-3.355390913085877225e-01
-3.237657898591635997e-01
-3.178791391344514827e-01
-3.237657898591635997e-01
-3.002191869603152985e-01
-3.296524405838756611e-01
-3.002191869603152985e-01
-3.002191869603152985e-01
-2.590126318873308686e-01
-2.825592347861791143e-01
-2.825592347861791143e-01
-3.296524405838756611e-01
-4.179522014545566377e-01
-4.473854550781169448e-01
-5.121386130499495648e-01
-4.885920101511013747e-01
-5.710051202970702899e-01
-5.827784217464944128e-01
-5.945517231959185356e-01
-6.298716275441909040e-01
-6.063250246453426584e-01
-5.180252637746616262e-01
-4.944786608758134361e-01
-4.297255029039807606e-01
-3.119924884097394213e-01
-2.472393304379067180e-01
-1.648262202919378305e-01
-5.297985652240858045e-02
0.000000000000000000e+00
5.297985652240858045e-02
1.177330144942413115e-01
1.177330144942413115e-01
1.353929666683774957e-01
1.530529188425136800e-01
2.295793782637705338e-01
1.177330144942413115e-01
1.295063159436654343e-01
1.118463637695292223e-01
1.177330144942413115e-01
1.177330144942413115e-01
1.295063159436654343e-01
9.418641159539303809e-02
1.000730623201050995e-01
1.353929666683774957e-01
1.471662681178016185e-01
1.177330144942413115e-01
1.883728231907860762e-01
1.942594739154981376e-01
1.530529188425136800e-01
1.942594739154981376e-01
1.824861724660740148e-01
1.765995217413619534e-01
1.295063159436654343e-01
1.471662681178016185e-01
1.295063159436654343e-01
1.177330144942413115e-01
1.707128710166498919e-01
1.707128710166498919e-01
1.236196652189533729e-01
1.177330144942413115e-01
1.059597130448171748e-01
1.177330144942413115e-01
1.177330144942413115e-01
8.829976087068097668e-02
4.120655507298445763e-02
4.120655507298445763e-02
3.531990434827238928e-02
4.120655507298445763e-02
2.354660289884825952e-02
4.120655507298445763e-02
3.531990434827238928e-02
-4.120655507298445763e-02
-1.177330144942412976e-02
2.354660289884825952e-02
1.765995217413619811e-02
1.177330144942412803e-02
1.765995217413619464e-02
-1.765995217413619464e-02
-4.709320579769651904e-02
-1.118463637695292223e-01
-2.943325362356032787e-02
0.000000000000000000e+00
-4.120655507298445069e-02
-4.709320579769651904e-02
-5.886650724712065574e-02
5.297985652240858045e-02
3.531990434827238928e-02
-1.765995217413619811e-02
0.000000000000000000e+00
5.886650724712068350e-03
-5.886650724712068350e-03
5.297985652240858739e-02
0.000000000000000000e+00
6.475315797183271715e-02
-2.354660289884825952e-02
1.765995217413619811e-02
5.297985652240858739e-02
0.000000000000000000e+00
-5.886650724712061411e-03
-1.765995217413619811e-02
-2.943325362356032093e-02
2.943325362356032440e-02
7.652645942125683998e-02
-1.765995217413619811e-02
-5.297985652240858045e-02
-1.177330144942413670e-02
-3.531990434827239622e-02
5.886650724712061411e-03
0.000000000000000000e+00
5.886650724712061411e-03
1.765995217413619117e-02
1.295063159436654066e-01
1.236196652189533590e-01
5.297985652240858045e-02
-1.765995217413619811e-02
-2.236927275390584446e-01
-2.236927275390584446e-01
-1.353929666683774957e-01
-1.471662681178016185e-01
-1.707128710166498642e-01
-1.295063159436654343e-01
-1.177330144942412282e-02
1.765995217413619811e-02
1.177330144942413670e-02
1.765995217413619811e-02
5.886650724712075289e-03
0.000000000000000000e+00
1.765995217413619811e-02
1.177330144942412282e-02
2.943325362356032093e-02
4.120655507298445069e-02
-1.236196652189533729e-01
-5.180252637746617372e-01
-8.947709101562338896e-01
-2.743179237715822172e+00
-3.437804023231846084e+00
-2.030894500025662630e+00
3.431917372507133912e+00
6.687235223272905316e+00
5.221459192819601469e+00
3.355390913085877003e+00
8.005844985608407960e-01
-6.239849768194788426e-01
-9.536374174033545037e-01
-7.593779434878563661e-01
-4.532721058028289507e-01
-3.355390913085877225e-01
-2.648992826120429300e-01
-2.531259811626188072e-01
-2.472393304379067458e-01
-2.766725840614670529e-01
-2.119194260896343218e-01
-1.648262202919378305e-01
-1.295063159436654343e-01
-1.589395695672257414e-01
-1.589395695672257414e-01
-1.530529188425136800e-01
-1.648262202919378305e-01
-2.178060768143463832e-01
-2.001461246402101990e-01
-2.413526797131946844e-01
-2.413526797131946844e-01
-2.119194260896343218e-01
-3.178791391344514827e-01
-3.473123927580118453e-01
-3.767456463815721524e-01
-4.473854550781168893e-01
-4.002922492804203980e-01
-4.002922492804203980e-01
-3.767456463815721524e-01
-3.473123927580118453e-01
-3.414257420332997839e-01
-2.472393304379067458e-01
-1.589395695672257414e-01
-1.589395695672257414e-01
-1.000730623201050995e-01
-2.354660289884825952e-02
1.177330144942412282e-02
1.000730623201050995e-01
9.418641159539303809e-02
5.297985652240858739e-02
4.709320579769651904e-02
1.118463637695292223e-01
5.297985652240858739e-02
4.120655507298445763e-02
0.000000000000000000e+00
0.000000000000000000e+00
-2.354660289884825258e-02
-2.354660289884825258e-02
0.000000000000000000e+00
1.471662681178016185e-01
1.765995217413619464e-02
5.886650724712068350e-03
-5.886650724712061411e-03
-1.177330144942412976e-02
-5.886650724712061411e-03
5.886650724712068350e-03
2.354660289884825952e-02
2.943325362356032787e-02
2.354660289884825952e-02
1.765995217413619464e-02
6.475315797183271715e-02
8.241311014596891527e-02
4.709320579769651904e-02
5.297985652240858739e-02
8.829976087068097668e-02
8.829976087068097668e-02
9.418641159539303809e-02
7.652645942125685385e-02
6.475315797183271715e-02
1.765995217413619464e-02
8.241311014596891527e-02
9.418641159539303809e-02
-5.886650724712061411e-03
7.652645942125685385e-02
5.886650724712064880e-02
2.943325362356032787e-02
7.063980869654477857e-02
5.297985652240858739e-02
-1.765995217413619117e-02
-1.177330144942412976e-02
4.709320579769651904e-02
4.709320579769651904e-02
-5.886650724712061411e-03
1.765995217413619464e-02
-5.886650724712061411e-03
5.886650724712068350e-03
7.063980869654477857e-02
0.000000000000000000e+00
-2.354660289884825258e-02
0.000000000000000000e+00
1.765995217413619464e-02
-2.943325362356032787e-02
-4.120655507298445069e-02
0.000000000000000000e+00
5.886650724712068350e-03
1.765995217413619464e-02
1.765995217413619464e-02
5.886650724712068350e-03
-2.943325362356032787e-02
-1.177330144942412976e-02
-1.177330144942412976e-02
-1.765995217413619117e-02
-1.177330144942412976e-02
7.063980869654477857e-02
-5.886650724712061411e-03
2.943325362356032787e-02
-1.177330144942412976e-02
-5.886650724712064880e-02
0.000000000000000000e+00
5.886650724712061411e-03
-5.886650724712068350e-03
-4.709320579769652598e-02
5.886650724712064880e-02
1.177330144942412976e-02
-2.354660289884826646e-02
5.886650724712061411e-03
8.829976087068097668e-02
-1.177330144942412976e-02
1.765995217413619117e-02
-5.297985652240858739e-02
-1.765995217413619117e-02
4.709320579769651904e-02
2.354660289884825605e-02
8.829976087068097668e-02
1.765995217413619256e-01
1.883728231907860762e-01
1.177330144942412837e-01
-1.000730623201050995e-01
-2.295793782637705338e-01
-2.001461246402102268e-01
-1.942594739154981376e-01
-1.059597130448171887e-01
-1.942594739154981376e-01
-1.236196652189533729e-01
-5.886650724712068350e-03
7.063980869654477857e-02
6.475315797183271715e-02
6.475315797183271715e-02
5.297985652240858739e-02
5.886650724712068350e-03
5.886650724712068350e-03
7.063980869654477857e-02
3.531990434827238928e-02
0.000000000000000000e+00
-3.178791391344514827e-01
-5.651184695723582285e-01
-1.677695456542938501e+00
-3.314184358012892684e+00
-2.719632634816974370e+00
5.827784217464944128e-01
5.633524743549445546e+00
6.481202447907983277e+00
4.144202110197293898e+00
2.148627514519903414e+00
1.707128710166498919e-01
-8.123578000102649188e-01
-8.829976087068097668e-01
-5.651184695723582285e-01
-3.531990434827238512e-01
-2.825592347861791143e-01
-2.119194260896343218e-01
-1.883728231907860762e-01
-1.883728231907860762e-01
-1.883728231907860762e-01
-1.118463637695292362e-01
-1.118463637695292362e-01
-7.652645942125683998e-02
-1.236196652189533590e-01
-7.652645942125683998e-02
-1.236196652189533590e-01
-1.000730623201051134e-01
-7.652645942125683998e-02
-1.000730623201051134e-01
-9.418641159539302421e-02
-1.059597130448171748e-01
-1.648262202919378305e-01
-1.471662681178016463e-01
-1.530529188425137077e-01
-2.001461246402101990e-01
-2.001461246402101990e-01
-2.707859333367549914e-01
-2.590126318873308131e-01
-2.590126318873308131e-01
-1.883728231907860762e-01
-1.530529188425137077e-01
-1.353929666683774957e-01
0.000000000000000000e+00
0.000000000000000000e+00
0.000000000000000000e+00
0.000000000000000000e+00
4.709320579769651904e-02
-1.177330144942412282e-02
5.886650724712064187e-02
5.297985652240858045e-02
4.120655507298445763e-02
7.652645942125682610e-02
7.652645942125679834e-02
1.177330144942412282e-02
-1.765995217413618423e-02
-4.120655507298445763e-02
-7.652645942125685385e-02
-6.475315797183270328e-02
-1.177330144942412282e-02
1.177330144942412282e-02
-4.120655507298442988e-02
-1.177330144942412282e-02
0.000000000000000000e+00
-8.241311014596888751e-02
-1.765995217413618423e-02
4.709320579769654680e-02
3.531990434827242398e-02
-1.765995217413623974e-02
3.531990434827236847e-02
2.354660289884824564e-02
-2.354660289884830116e-02
4.709320579769649129e-02
5.297985652240855270e-02
1.765995217413618423e-02
1.765995217413618423e-02
1.059597130448171609e-01
8.241311014596891527e-02
1.118463637695292223e-01
1.059597130448171609e-01
1.059597130448171609e-01
8.241311014596891527e-02
7.063980869654473693e-02
5.297985652240855270e-02
4.709320579769649129e-02
9.418641159539303809e-02
8.241311014596891527e-02
2.943325362356030706e-02
2.354660289884824564e-02
3.531990434827236847e-02
4.120655507298442988e-02
5.886650724712061411e-02
5.297985652240855270e-02
4.709320579769649129e-02
1.765995217413618423e-02
0.000000000000000000e+00
-5.886650724712061411e-03
-1.177330144942412282e-02
-1.177330144942412282e-02
1.765995217413618423e-02
0.000000000000000000e+00
8.241311014596891527e-02
4.709320579769649129e-02
-2.354660289884830116e-02
1.177330144942412282e-02
5.297985652240855270e-02
-1.177330144942412282e-02
-3.531990434827242398e-02
1.765995217413618423e-02
-1.177330144942412282e-02
5.297985652240855270e-02
6.475315797183267552e-02
2.354660289884824564e-02
-4.709320579769654680e-02
-4.120655507298448539e-02
2.943325362356030706e-02
-2.943325362356036257e-02
3.531990434827236847e-02
0.000000000000000000e+00
-4.120655507298448539e-02
2.354660289884824564e-02
-1.765995217413618423e-02
-4.120655507298448539e-02
-1.177330144942412282e-02
2.354660289884824564e-02
-1.765995217413623974e-02
0.000000000000000000e+00
3.119924884097394213e-01
3.531990434827236847e-02
3.531990434827236847e-02
7.063980869654473693e-02
4.120655507298442988e-02
7.652645942125679834e-02
-1.765995217413618423e-02
-6.475315797183267552e-02
0.000000000000000000e+00
7.652645942125685385e-02
1.236196652189534007e-01
2.943325362356036257e-02
-1.295063159436654066e-01
-3.414257420332997284e-01
-1.765995217413619256e-01
-1.177330144942412837e-01
-8.829976087068097668e-02
-1.530529188425136800e-01
-1.353929666683774957e-01
-1.177330144942412282e-02
4.709320579769651904e-02
7.652645942125682610e-02
7.063980869654476469e-02
8.241311014596888751e-02
-4.709320579769651904e-02
1.177330144942412282e-02
1.236196652189533451e-01
9.418641159539303809e-02
1.295063159436654066e-01
-2.354660289884827340e-02
-5.239119144993737986e-01
-1.083143733347019966e+00
-2.760839189889958245e+00
-2.843252300035927327e+00
-4.414988043534048279e-01
4.709320579769651793e+00
6.863834745014267824e+00
5.233232494269025814e+00
3.302411056563468339e+00
1.224423350740109440e+00
-3.355390913085876670e-01
-8.417910536338252259e-01
-6.416449289936150269e-01
-4.061789000051324594e-01
-3.002191869603152985e-01
-2.001461246402101990e-01
-1.059597130448171748e-01
-1.177330144942412976e-01
-1.353929666683774680e-01
-1.471662681178016463e-01
-1.530529188425137077e-01
-8.829976087068096280e-02
-1.059597130448171748e-01
-1.295063159436654066e-01
-1.883728231907860762e-01
-1.412796173930895849e-01
-1.589395695672257691e-01
-2.178060768143463832e-01
-1.942594739154981376e-01
-2.119194260896343218e-01
-2.060327753649223159e-01
-1.883728231907860762e-01
-2.119194260896343773e-01
-3.119924884097394768e-01
-4.002922492804203980e-01
-4.179522014545565822e-01
-4.061789000051324594e-01
-3.885189478309962752e-01
-3.944055985557083366e-01
-3.531990434827239067e-01
-3.590856942074359681e-01
-2.943325362356032926e-01
-2.766725840614671084e-01
-1.824861724660740148e-01
-9.418641159539303809e-02
4.709320579769653292e-02
1.059597130448171748e-01
8.241311014596891527e-02
1.059597130448171748e-01
1.471662681178016185e-01
2.060327753649222604e-01
2.236927275390584446e-01
1.353929666683774680e-01
1.530529188425136800e-01
2.648992826120429300e-01
2.943325362356032371e-01
2.119194260896343496e-01
1.236196652189533729e-01
8.241311014596891527e-02
1.648262202919378305e-01
2.178060768143464110e-01
2.119194260896343496e-01
1.589395695672257691e-01
1.707128710166498919e-01
2.531259811626188072e-01
2.472393304379067458e-01
2.178060768143464110e-01
2.236927275390584724e-01
1.707128710166498919e-01
1.530529188425137077e-01
1.589395695672257691e-01
5.297985652240858045e-02
-1.177330144942412282e-02
8.241311014596891527e-02
1.471662681178016463e-01
9.418641159539303809e-02
9.418641159539303809e-02
1.942594739154981376e-01
1.000730623201051134e-01
3.531990434827239622e-02
8.241311014596891527e-02
5.297985652240858045e-02
8.829976087068097668e-02
1.000730623201051134e-01
7.652645942125685385e-02
8.829976087068097668e-02
5.297985652240858045e-02
6.475315797183273103e-02
-3.531990434827239622e-02
-2.943325362356030706e-02
-1.765995217413618423e-02
-2.943325362356030706e-02
-2.943325362356030706e-02
-2.943325362356030706e-02
-1.765995217413618423e-02
-1.765995217413618423e-02
-1.177330144942412282e-02
-1.765995217413618423e-02
-1.765995217413618423e-02
-2.943325362356033481e-02
-1.765995217413618423e-02
3.531990434827239622e-02
1.177330144942412282e-02
-5.886650724712061411e-03
-3.531990434827239622e-02
4.120655507298445763e-02
8.241311014596891527e-02
2.943325362356030706e-02
2.354660289884824564e-02
9.418641159539303809e-02
5.297985652240858045e-02
4.709320579769651904e-02
1.177330144942412282e-02
-1.177330144942412282e-02
-1.765995217413621199e-02
-4.120655507298445763e-02
-1.177330144942412282e-02
-2.943325362356033481e-02
-6.475315797183270328e-02
-2.943325362356033481e-02
-1.177330144942412282e-02
5.297985652240858045e-02
1.177330144942412282e-02
-5.886650724712061411e-03
0.000000000000000000e+00
8.241311014596888751e-02
5.297985652240858045e-02
7.652645942125682610e-02
1.177330144942412837e-01
-4.709320579769651904e-02
-2.766725840614669973e-01
-1.942594739154981653e-01
-1.236196652189533729e-01
-1.295063159436654343e-01
-1.059597130448171887e-01
-7.652645942125688161e-02
0.000000000000000000e+00
3.531990434827236847e-02
9.418641159539303809e-02
8.241311014596888751e-02
2.943325362356030706e-02
2.354660289884824564e-02
6.475315797183270328e-02
1.177330144942412282e-02
5.297985652240858045e-02
1.177330144942412282e-02
-2.236927275390584724e-01
-5.415718666735099829e-01
-1.559962442048697273e+00
-3.108151582647970201e+00
-2.325227036261265479e+00
5.356852159487979215e-01
6.163323308773531295e+00
6.492975749357407622e+00
4.844713546438028651e+00
2.925665410181896409e+00
3.767456463815721524e-01
-7.829245463867046118e-01
-1.047823828998747597e+00
-9.418641159539303809e-01
-5.768917710217823513e-01
-4.414988043534048279e-01
-3.708589956568600909e-01
-3.649723449321480295e-01
-3.355390913085877225e-01
-3.649723449321480295e-01
-2.943325362356031816e-01
-2.413526797131946566e-01
-2.472393304379067180e-01
-2.825592347861790588e-01
-2.060327753649222882e-01
-1.883728231907861039e-01
-2.590126318873308131e-01
-1.942594739154981653e-01
-2.766725840614669973e-01
-3.649723449321480295e-01
-3.237657898591635997e-01
-2.884458855108911202e-01
-4.002922492804203980e-01
-3.826322971062842138e-01
-4.297255029039807050e-01
-4.650454072522530735e-01
-4.768187087016771963e-01
-5.121386130499496758e-01
-5.121386130499496758e-01
-5.356852159487979215e-01
-4.061789000051324594e-01
-3.708589956568600909e-01
-3.061058376850273044e-01
-2.001461246402102268e-01
-1.648262202919378028e-01
-1.000730623201051273e-01
0.000000000000000000e+00
0.000000000000000000e+00
4.709320579769651904e-02
1.118463637695292223e-01
1.412796173930895571e-01
1.589395695672257414e-01
1.648262202919378305e-01
2.001461246402101990e-01
1.765995217413619534e-01
9.418641159539303809e-02
1.177330144942412976e-01
7.652645942125683998e-02
7.652645942125683998e-02
9.418641159539303809e-02
1.295063159436654343e-01
1.236196652189533590e-01
1.000730623201050995e-01
1.059597130448171609e-01
1.118463637695292223e-01
1.059597130448171609e-01
1.353929666683774957e-01
1.353929666683774957e-01
1.118463637695292223e-01
1.765995217413619534e-01
1.648262202919378305e-01
8.241311014596891527e-02
8.241311014596891527e-02
1.059597130448171609e-01
7.652645942125683998e-02
7.652645942125683998e-02
7.652645942125683998e-02
7.652645942125683998e-02
3.531990434827238234e-02
5.886650724712064187e-02
0.000000000000000000e+00
1.765995217413619811e-02
1.177330144942412282e-02
0.000000000000000000e+00
0.000000000000000000e+00
5.886650724712061411e-03
-1.765995217413618423e-02
-1.177330144942412282e-02
-5.886650724712061411e-03
-2.354660289884827340e-02
-1.177330144942412282e-02
-1.177330144942412282e-02
5.297985652240858045e-02
3.531990434827238234e-02
3.531990434827238234e-02
4.120655507298445763e-02
5.886650724712064187e-02
-1.765995217413618423e-02
2.354660289884825952e-02
-2.354660289884827340e-02
0.000000000000000000e+00
1.177330144942412282e-02
6.475315797183271715e-02
4.709320579769651904e-02
1.177330144942412282e-02
-1.765995217413621199e-02
-2.943325362356033481e-02
5.886650724712061411e-03
1.765995217413618423e-02
-1.765995217413621199e-02
-5.297985652240858045e-02
5.886650724712061411e-03
0.000000000000000000e+00
-4.709320579769651904e-02
-5.886650724712061411e-03
1.177330144942412282e-02
-5.886650724712061411e-03
-1.765995217413621199e-02
1.177330144942412282e-02
-2.354660289884827340e-02
-5.297985652240860821e-02
0.000000000000000000e+00
2.943325362356030706e-02
9.418641159539302421e-02
1.295063159436654066e-01
1.118463637695292223e-01
5.886650724712061411e-03
-1.824861724660740425e-01
-2.707859333367550470e-01
-2.236927275390584724e-01
-1.353929666683774957e-01
-1.530529188425136522e-01
-1.942594739154981376e-01
-8.829976087068094892e-02
0.000000000000000000e+00
6.475315797183273103e-02
0.000000000000000000e+00
8.829976087068099055e-02
5.886650724712065574e-02
3.531990434827239622e-02
5.297985652240859433e-02
3.531990434827239622e-02
5.886650724712065574e-02
-2.354660289884824564e-02
-4.473854550781169448e-01
-6.534182304430391497e-01
-2.472393304379067569e+00
-3.461350626130694330e+00
-2.372320242058962414e+00
1.866068279733724689e+00
6.793194936317723531e+00
5.780691011667247636e+00
3.702703305843888515e+00
1.554075791323985101e+00
-4.532721058028290062e-01
-9.595240681280665651e-01
-8.359044029091131645e-01
-5.415718666735098719e-01
-1.648262202919378305e-01
-2.707859333367549914e-01
-2.472393304379066903e-01
-1.942594739154981376e-01
-1.942594739154981376e-01
-1.824861724660740148e-01
-1.883728231907860762e-01
-3.944055985557082811e-01
-1.000730623201050995e-01
-1.236196652189533451e-01
-1.765995217413619534e-01
-1.236196652189533451e-01
-1.471662681178015908e-01
-1.295063159436654066e-01
-1.118463637695292223e-01
-1.530529188425136522e-01
-1.942594739154981376e-01
-1.883728231907860762e-01
-1.530529188425136522e-01
-2.531259811626187517e-01
-3.178791391344514827e-01
-3.178791391344514827e-01
-3.473123927580117898e-01
-3.767456463815720968e-01
-3.296524405838756056e-01
-2.766725840614670529e-01
-2.707859333367549914e-01
-1.471662681178015908e-01
-9.418641159539303809e-02
-2.943325362356030706e-02
0.000000000000000000e+00
0.000000000000000000e+00
7.063980869654477857e-02
1.000730623201050995e-01
1.059597130448171609e-01
8.241311014596891527e-02
1.177330144942413150e-02
8.241311014596891527e-02
8.241311014596891527e-02
5.886650724712066615e-03
5.886650724712066615e-03
2.943325362356032787e-02
-1.765995217413619117e-02
-5.886650724712064880e-03
2.943325362356032787e-02
-2.943325362356032093e-02
-3.531990434827238928e-02
-5.886650724712064880e-03
-3.531990434827238928e-02
-5.886650724712064880e-03
5.297985652240858739e-02
3.531990434827238928e-02
1.765995217413619464e-02
5.886650724712064880e-02
5.297985652240858739e-02
5.886650724712066615e-03
5.886650724712064880e-02
7.652645942125685385e-02
4.709320579769651904e-02
7.652645942125685385e-02
5.886650724712064880e-02
2.354660289884825952e-02
4.120655507298445763e-02
7.063980869654477857e-02
8.829976087068097668e-02
3.531990434827238928e-02
5.886650724712064880e-02
6.475315797183271715e-02
1.765995217413619464e-02
5.297985652240858739e-02
7.652645942125685385e-02
4.120655507298445763e-02
5.886650724712066615e-03
5.886650724712066615e-03
-5.886650724712064880e-03
0.000000000000000000e+00
5.886650724712066615e-03
-5.886650724712064880e-03
-5.886650724712064880e-03
0.000000000000000000e+00
0.000000000000000000e+00
-4.120655507298445069e-02
-5.886650724712064880e-03
0.000000000000000000e+00
-1.765995217413619117e-02
2.943325362356032787e-02
1.765995217413619464e-02
-1.177330144942412976e-02
-1.765995217413619117e-02
5.886650724712064880e-03
2.354660289884825952e-02
5.886650724712064880e-03
2.943325362356032440e-02
-2.943325362356032440e-02
0.000000000000000000e+00
1.177330144942413150e-02
4.709320579769651904e-02
-1.765995217413619464e-02
-2.943325362356032440e-02
0.000000000000000000e+00
5.886650724712064880e-03
-2.354660289884825605e-02
4.709320579769651904e-02
-1.765995217413619464e-02
-2.354660289884825605e-02
5.886650724712064880e-03
-1.765995217413619811e-02
-1.765995217413619117e-02
-1.177330144942412976e-02
-1.177330144942412976e-02
0.000000000000000000e+00
9.418641159539303809e-02
8.241311014596891527e-02
5.297985652240858739e-02
7.652645942125685385e-02
-2.884458855108911757e-01
-2.825592347861791143e-01
-1.589395695672257691e-01
-1.000730623201050995e-01
-1.824861724660740148e-01
-1.118463637695292501e-01
-1.177330144942412976e-02
4.709320579769651904e-02
3.531990434827238928e-02
5.886650724712064880e-02
2.943325362356032440e-02
0.000000000000000000e+00
2.943325362356032440e-02
6.475315797183271715e-02
8.241311014596891527e-02
6.475315797183271715e-02
-1.236196652189533590e-01
-6.180983260947667812e-01
-1.348043015959062840e+00
-3.167018089895091038e+00
-3.167018089895091038e+00
-3.767456463815721524e-01
4.891806752235726030e+00
6.952134505884948190e+00
4.991879814555830741e+00
2.678426079743989163e+00
4.885920101511013747e-01
-7.476046420384322433e-01
-9.418641159539303809e-01
-6.063250246453426584e-01
-3.944055985557083366e-01
-2.884458855108911757e-01
-1.883728231907860762e-01
-1.883728231907860762e-01
-1.824861724660740148e-01
-1.707128710166498919e-01
-1.648262202919378305e-01
-1.824861724660740148e-01
-1.648262202919378305e-01
-1.295063159436654066e-01
-1.353929666683774680e-01
-1.118463637695292362e-01
-1.471662681178016463e-01
-1.059597130448171748e-01
-1.707128710166498919e-01
-1.530529188425137077e-01
-1.883728231907860762e-01
-2.236927275390584446e-01
-1.942594739154981376e-01
-2.766725840614670529e-01
-2.531259811626187517e-01
-2.707859333367549914e-01
-2.531259811626187517e-01
-3.002191869603152985e-01
-3.296524405838756056e-01
-2.707859333367549914e-01
-2.766725840614670529e-01
-1.765995217413619534e-01
-9.418641159539303809e-02
-2.943325362356032440e-02
0.000000000000000000e+00
0.000000000000000000e+00
0.000000000000000000e+00
0.000000000000000000e+00
3.531990434827239622e-02
-5.886650724712061411e-03
-1.177330144942415058e-02
4.709320579769651904e-02
5.886650724712064187e-02
-1.765995217413621199e-02
3.531990434827236847e-02
5.886650724712061411e-03
-1.177330144942412282e-02
1.765995217413618423e-02
3.178791391344515382e-01
-1.765995217413618423e-02
-5.886650724712064187e-02
-3.531990434827236847e-02
-4.120655507298442988e-02
-3.531990434827236847e-02
0.000000000000000000e+00
-5.886650724712061411e-03
0.000000000000000000e+00
1.177330144942412282e-02
0.000000000000000000e+00
1.177330144942412282e-02
7.063980869654479244e-02
6.475315797183273103e-02
2.943325362356036257e-02
5.297985652240860821e-02
1.765995217413618423e-02
0.000000000000000000e+00
1.765995217413618423e-02
1.765995217413618423e-02
1.177330144942412282e-02
0.000000000000000000e+00
2.943325362356036257e-02
0.000000000000000000e+00
-3.531990434827236847e-02
-1.765995217413618423e-02
1.765995217413618423e-02
2.943325362356036257e-02
5.886650724712061411e-03
2.413526797131946289e-01
0.000000000000000000e+00
5.886650724712061411e-03
-1.177330144942412282e-02
-4.709320579769649129e-02
-2.943325362356030706e-02
5.886650724712061411e-03
5.297985652240860821e-02
-5.886650724712061411e-03
0.000000000000000000e+00
3.531990434827242398e-02
3.531990434827242398e-02
9.418641159539303809e-02
3.531990434827242398e-02
-3.531990434827236847e-02
-4.120655507298442988e-02
-5.886650724712061411e-03
-3.531990434827236847e-02
5.886650724712061411e-03
0.000000000000000000e+00
-3.531990434827236847e-02
-4.120655507298442988e-02
-5.886650724712061411e-03
0.000000000000000000e+00
0.000000000000000000e+00
1.765995217413618423e-02
5.886650724712066962e-02
1.177330144942412282e-02
2.943325362356036257e-02
1.177330144942412282e-02
-2.943325362356030706e-02
0.000000000000000000e+00
2.943325362356036257e-02
5.886650724712061411e-03
1.295063159436654621e-01
4.709320579769654680e-02
1.177330144942412282e-02
0.000000000000000000e+00
-2.943325362356030706e-02
5.886650724712061411e-03
7.063980869654479244e-02
7.652645942125685385e-02
6.475315797183273103e-02
-2.943325362356030706e-02
-2.531259811626187517e-01
-3.590856942074359681e-01
-3.826322971062842138e-01
-1.707128710166498919e-01
-2.178060768143463832e-01
-1.589395695672257414e-01
-1.000730623201050995e-01
5.886650724712061411e-03
3.531990434827236847e-02
3.531990434827236847e-02
1.765995217413618423e-02
-1.765995217413618423e-02
4.120655507298442988e-02
4.709320579769649129e-02
5.297985652240858045e-02
1.000730623201050995e-01
4.120655507298445763e-02
-3.590856942074359681e-01
-6.710781826171754449e-01
-2.272247179738857259e+00
-3.402484118883573494e+00
-2.437073400030794978e+00
2.354660289884825897e+00
6.728441778345890079e+00
6.010270389931018364e+00
4.014695794253628769e+00
1.660035504368802428e+00
-1.648262202919378305e-01
-8.888842594315218282e-01
-8.476777043585372873e-01
-5.180252637746617372e-01
-3.531990434827239067e-01
-2.943325362356032371e-01
-2.060327753649222882e-01
-1.883728231907860762e-01
-1.883728231907860762e-01
-1.530529188425136800e-01
-1.236196652189533451e-01
-1.412796173930895294e-01
-1.118463637695292223e-01
-9.418641159539302421e-02
-1.707128710166498642e-01
-1.295063159436654066e-01
-1.353929666683774957e-01
-1.589395695672257414e-01
-2.119194260896343218e-01
-2.119194260896343218e-01
-2.119194260896343218e-01
-2.884458855108911757e-01
-2.707859333367549914e-01
-2.531259811626187517e-01
-3.178791391344514827e-01
-3.061058376850273599e-01
-3.296524405838756611e-01
-3.473123927580118453e-01
-3.119924884097394213e-01
-2.648992826120429300e-01
-2.236927275390584724e-01
-2.354660289884825952e-01
-1.236196652189533590e-01
-4.709320579769651904e-02
0.000000000000000000e+00
1.177330144942412976e-01
1.765995217413619534e-01
2.119194260896343773e-01
2.531259811626188072e-01
2.707859333367549914e-01
1.824861724660740148e-01
3.885189478309962752e-01
2.707859333367549914e-01
2.119194260896343496e-01
1.707128710166498919e-01
2.354660289884826230e-01
2.178060768143464110e-01
2.001461246402101990e-01
1.648262202919378028e-01
1.589395695672257414e-01
1.471662681178016185e-01
1.883728231907860762e-01
1.707128710166498642e-01
2.060327753649222604e-01
1.589395695672257414e-01
2.060327753649222604e-01
2.178060768143463832e-01
2.060327753649222604e-01
2.119194260896343218e-01
1.824861724660740148e-01
1.707128710166498642e-01
1.589395695672257414e-01
1.295063159436654343e-01
7.652645942125683998e-02
5.297985652240858739e-02
7.063980869654477857e-02
6.475315797183270328e-02
8.241311014596890139e-02
6.475315797183270328e-02
5.886650724712065748e-03
2.354660289884825952e-02
1.000730623201050995e-01
3.531990434827238928e-02
5.297985652240858739e-02
5.297985652240858739e-02
-4.120655507298445069e-02
-1.765995217413619464e-02
3.531990434827238928e-02
3.531990434827238928e-02
5.297985652240858739e-02
2.354660289884825952e-02
0.000000000000000000e+00
-2.943325362356032093e-02
2.943325362356032440e-02
0.000000000000000000e+00
1.765995217413619117e-02
-5.886650724712068350e-03
-1.765995217413619811e-02
-5.886650724712061411e-03
5.886650724712061411e-03
4.709320579769651904e-02
0.000000000000000000e+00
-5.886650724712064187e-02
-1.765995217413618423e-02
2.943325362356032093e-02
-1.177330144942413670e-02
5.886650724712075289e-03
0.000000000000000000e+00
-1.177330144942412282e-02
-4.120655507298445763e-02
4.709320579769650517e-02
0.000000000000000000e+00
0.000000000000000000e+00
4.120655507298445763e-02
-3.531990434827239622e-02
-5.886650724712064187e-02
-5.886650724712061411e-03
0.000000000000000000e+00
-6.475315797183270328e-02
-5.886650724712061411e-03
0.000000000000000000e+00
2.943325362356030706e-02
1.177330144942412282e-02
3.531990434827239622e-02
0.000000000000000000e+00
-2.943325362356033481e-02
0.000000000000000000e+00
0.000000000000000000e+00
0.000000000000000000e+00
5.297985652240858045e-02
7.652645942125682610e-02
0.000000000000000000e+00
-1.707128710166499197e-01
-3.767456463815721524e-01
-4.768187087016771963e-01
-3.649723449321480295e-01
-3.002191869603152430e-01
-2.766725840614669973e-01
-2.413526797131946289e-01
-5.297985652240860821e-02
4.120655507298445763e-02
4.120655507298445763e-02
5.297985652240858045e-02
4.709320579769651904e-02
4.120655507298445763e-02
5.297985652240858045e-02
8.829976087068097668e-02
6.475315797183273103e-02
5.297985652240860821e-02
0.000000000000000000e+00
-4.179522014545566377e-01
-6.475315797183271993e-01
-2.077987705823359121e+00
-3.484897229029542576e+00
-2.378206892783674142e+00
1.730675313065347165e+00
6.310489576891333385e+00
5.892537375436776692e+00
3.926396033382947071e+00
1.924934786980845303e+00
-7.063980869654479244e-02
-9.300908145045061470e-01
-8.712243072573855329e-01
-6.298716275441909040e-01
-4.002922492804204535e-01
-3.296524405838756056e-01
-2.648992826120429300e-01
-2.060327753649223159e-01
-2.707859333367549914e-01
-2.531259811626188072e-01
-2.354660289884826230e-01
-2.119194260896343773e-01
-1.883728231907860207e-01
-2.295793782637705616e-01
-1.824861724660739593e-01
-1.824861724660739593e-01
-2.295793782637705616e-01
-2.060327753649223159e-01
-2.119194260896343773e-01
-2.531259811626188072e-01
-2.825592347861791143e-01
-2.884458855108911757e-01
-4.061789000051325149e-01
-4.238388521792686991e-01
-4.473854550781169448e-01
-4.885920101511013747e-01
-5.239119144993737986e-01
-4.944786608758134361e-01
-4.768187087016772518e-01
-4.944786608758134361e-01
-4.768187087016772518e-01
-3.767456463815720968e-01
-3.414257420332997284e-01
-2.413526797131946844e-01
-1.824861724660739593e-01
-1.177330144942412837e-01
-8.241311014596891527e-02
5.886650724712066962e-02
0.000000000000000000e+00
-2.943325362356036257e-02
4.120655507298442988e-02
7.063980869654476469e-02
7.652645942125682610e-02
1.118463637695292223e-01
8.829976087068094892e-02
7.063980869654476469e-02
4.709320579769649129e-02
5.886650724712064187e-02
7.063980869654476469e-02
8.829976087068094892e-02
1.471662681178015908e-01
1.177330144942412837e-01
1.471662681178015908e-01
1.471662681178015908e-01
1.000730623201050717e-01
1.236196652189533451e-01
1.707128710166498642e-01
1.648262202919378028e-01
1.412796173930895294e-01
1.707128710166498642e-01
1.295063159436654066e-01
1.236196652189533451e-01
1.412796173930895294e-01
9.418641159539301033e-02
6.475315797183270328e-02
6.475315797183270328e-02
2.354660289884824564e-02
5.297985652240855270e-02
5.886650724712064187e-02
1.000730623201050717e-01
9.418641159539301033e-02
4.709320579769649129e-02
1.177330144942412282e-02
6.475315797183270328e-02
6.475315797183270328e-02
7.063980869654476469e-02
8.241311014596888751e-02
-2.943325362356036257e-02
-2.943325362356036257e-02
2.354660289884824564e-02
2.943325362356030706e-02
4.120655507298442988e-02
4.120655507298442988e-02
2.943325362356030706e-02
5.886650724712061411e-03
5.886650724712064187e-02
3.531990434827236847e-02
1.765995217413623974e-02
1.765995217413623974e-02
-1.765995217413618423e-02
-2.354660289884824564e-02
-5.886650724712061411e-03
5.886650724712061411e-03
-2.354660289884824564e-02
-5.886650724712061411e-02
0.000000000000000000e+00
-1.765995217413618423e-02
5.886650724712061411e-03
-4.120655507298442988e-02
-5.886650724712061411e-02
-4.120655507298442988e-02
1.765995217413618423e-02
1.177330144942412282e-02
-7.652645942125685385e-02
-5.886650724712061411e-02
0.000000000000000000e+00
-2.943325362356030706e-02
-4.120655507298442988e-02
1.177330144942412282e-02
6.475315797183273103e-02
5.886650724712061411e-03
-3.531990434827236847e-02
5.886650724712061411e-03
1.177330144942412282e-02
1.765995217413618423e-02
0.000000000000000000e+00
3.531990434827242398e-02
-8.829976087068097668e-02
-3.296524405838756056e-01
-5.710051202970702899e-01
-6.063250246453426584e-01
-4.827053594263893133e-01
-4.650454072522531290e-01
-3.178791391344514827e-01
-1.824861724660739593e-01
-8.829976087068097668e-02
0.000000000000000000e+00
1.059597130448171609e-01
8.829976087068097668e-02
1.765995217413619534e-01
1.471662681178016185e-01
1.353929666683774957e-01
1.707128710166498642e-01
2.295793782637705338e-01
2.590126318873308131e-01
1.471662681178016185e-01
-2.413526797131946844e-01
-6.180983260947667812e-01
-2.519486510176763616e+00
-2.990418568153728973e+00
-1.371589618857911086e+00
3.832209621787554088e+00
6.775534984143586570e+00
5.315645604414994452e+00
4.014695794253628769e+00
1.642375552194666133e+00
-5.297985652240860821e-02
-7.770378956619925503e-01
-9.771840203022028604e-01
-5.239119144993737986e-01
-2.766725840614670529e-01
-1.824861724660740703e-01
3.237657898591635441e-01
-1.177330144942412837e-01
-4.709320579769654680e-02
-5.886650724712066962e-02
-2.354660289884824564e-02
-5.886650724712066962e-02
-1.059597130448171609e-01
-5.886650724712066962e-02
-4.709320579769649129e-02
-1.059597130448171609e-01
-8.241311014596891527e-02
-6.475315797183273103e-02
-7.652645942125685385e-02
-1.177330144942412837e-01
-1.765995217413618978e-01
-2.354660289884826230e-01
-2.707859333367549914e-01
-3.414257420332997284e-01
-2.825592347861791143e-01
-3.531990434827238512e-01
-4.120655507298445763e-01
-4.591587565275410676e-01
-4.179522014545566377e-01
-3.531990434827238512e-01
-3.590856942074359126e-01
-3.002191869603152985e-01
-2.178060768143464387e-01
-1.824861724660739593e-01
-7.652645942125685385e-02
0.000000000000000000e+00
0.000000000000000000e+00
0.000000000000000000e+00
0.000000000000000000e+00
6.475315797183271715e-02
7.652645942125683998e-02
2.354660289884825952e-02
5.297985652240859433e-02
5.297985652240858739e-02
1.765995217413619117e-02
-1.177330144942413323e-02
-6.475315797183271715e-02
-2.354660289884825952e-02
-3.531990434827238928e-02
-8.241311014596891527e-02
-1.765995217413619117e-02
9.418641159539303809e-02
7.652645942125685385e-02
0.000000000000000000e+00
-2.354660289884826646e-02
5.297985652240856658e-02
7.063980869654477857e-02
5.297985652240856658e-02
4.120655507298444375e-02
7.652645942125683998e-02
5.297985652240859433e-02
1.471662681178016463e-01
1.412796173930895294e-01
0.000000000000000000e+00
-3.531990434827238928e-02
-5.886650724712061411e-03
-4.120655507298445763e-02
-4.120655507298445763e-02
-1.765995217413619811e-02
3.531990434827239622e-02
-1.765995217413619811e-02
-4.120655507298445763e-02
-4.120655507298445763e-02
-4.709320579769652598e-02
3.531990434827239622e-02
0.000000000000000000e+00
1.177330144942412282e-02
1.177330144942412282e-02
-7.652645942125685385e-02
-5.886650724712064880e-02
0.000000000000000000e+00
2.354660289884824564e-02
-6.475315797183271715e-02
-7.063980869654477857e-02
-1.177330144942412282e-02
2.354660289884827340e-02
2.354660289884827340e-02
2.354660289884827340e-02
4.709320579769651904e-02
5.886650724712061411e-03
2.354660289884827340e-02
2.354660289884827340e-02
-2.413526797131946566e-01
1.177330144942413670e-02
4.709320579769651904e-02
2.354660289884827340e-02
-4.120655507298445763e-02
-1.765995217413619811e-02
5.297985652240858045e-02
4.709320579769651904e-02
9.418641159539303809e-02
7.063980869654479244e-02
6.475315797183270328e-02
1.000730623201050995e-01
1.177330144942413115e-01
1.530529188425137077e-01
3.061058376850273599e-01
3.061058376850273599e-01
4.297255029039807050e-01
3.119924884097394213e-01
1.177330144942413115e-01
-5.297985652240858045e-02
5.886650724712064187e-02
2.354660289884827340e-02
2.354660289884827340e-02
3.531990434827239622e-02
1.589395695672257691e-01
1.295063159436654343e-01
1.177330144942413115e-01
1.353929666683774957e-01
6.475315797183270328e-02
2.354660289884827340e-02
0.000000000000000000e+00
6.475315797183270328e-02
2.943325362356033481e-02
2.354660289884827340e-02
2.943325362356033481e-02
-3.590856942074359681e-01
-5.533451681229341057e-01
-1.724788662340634993e+00
-3.072831678299698055e+00
-2.201607371042312522e+00
1.036050527549323252e+00
6.022043691380441821e+00
6.634255366750497096e+00
4.650454072522530957e+00
2.696086031918125681e+00
4.650454072522531845e-01
-7.770378956619925503e-01
-1.041937178274035425e+00
-8.653376565326734715e-01
-6.534182304430391497e-01
-4.709320579769652459e-01
-3.178791391344515382e-01
-2.884458855108911757e-01
-2.531259811626188072e-01
-2.295793782637705338e-01
-2.236927275390584724e-01
-2.295793782637705338e-01
-2.001461246402101990e-01
-2.236927275390584724e-01
-1.942594739154981376e-01
-1.765995217413619534e-01
-2.119194260896343496e-01
-2.119194260896343496e-01
-2.001461246402101990e-01
-2.236927275390584724e-01
-2.295793782637705338e-01
-3.061058376850274154e-01
-2.884458855108911757e-01
-3.826322971062842138e-01
-4.179522014545565822e-01
-4.944786608758134916e-01
-5.415718666735099829e-01
-7.593779434878563661e-01
-5.710051202970702899e-01
-5.533451681229341057e-01
-5.533451681229341057e-01
-5.003653116005255530e-01
-4.120655507298445208e-01
-3.473123927580118453e-01
-2.236927275390584724e-01
-1.353929666683774957e-01
8.829976087068094892e-02
1.177330144942412282e-02
8.829976087068094892e-02
1.236196652189533729e-01
1.530529188425136800e-01
2.178060768143464110e-01
2.413526797131946566e-01
2.178060768143464110e-01
2.766725840614669973e-01
2.178060768143464110e-01
2.119194260896343496e-01
2.119194260896343496e-01
2.178060768143464110e-01
1.883728231907860484e-01
2.236927275390584724e-01
2.766725840614669973e-01
1.942594739154981098e-01
2.119194260896343496e-01
2.413526797131946566e-01
2.766725840614669973e-01
2.472393304379067180e-01
2.236927275390584724e-01
2.766725840614669973e-01
2.766725840614669973e-01
2.825592347861790588e-01
2.825592347861790588e-01
1.824861724660739870e-01
2.236927275390584724e-01
2.001461246402101712e-01
1.707128710166498642e-01
1.471662681178016185e-01
1.648262202919378028e-01
1.530529188425136800e-01
1.059597130448171332e-01
8.829976087068094892e-02
6.475315797183270328e-02
5.297985652240858045e-02
7.652645942125682610e-02
5.886650724712064187e-02
1.177330144942412282e-02
8.829976087068094892e-02
8.241311014596888751e-02
2.943325362356033481e-02
3.531990434827239622e-02
0.000000000000000000e+00
4.709320579769651904e-02
1.177330144942412282e-02
-1.765995217413621199e-02
-1.177330144942412282e-02
-2.354660289884824564e-02
0.000000000000000000e+00
-2.354660289884824564e-02
-2.943325362356030706e-02
0.000000000000000000e+00
1.765995217413621199e-02
-5.886650724712064187e-02
-1.765995217413618423e-02
-4.709320579769651904e-02
-6.475315797183270328e-02
-9.418641159539303809e-02
-4.709320579769651904e-02
-1.765995217413621199e-02
-2.354660289884824564e-02
0.000000000000000000e+00
-5.886650724712061411e-03
5.886650724712064187e-02
2.354660289884825952e-01
3.590856942074359681e-01
2.825592347861790588e-01
4.120655507298445763e-02
4.120655507298442988e-02
9.418641159539303809e-02
-7.063980869654476469e-02
-9.418641159539303809e-02
5.886650724712061411e-03
4.709320579769650517e-02
3.531990434827238234e-02
0.000000000000000000e+00
-2.354660289884825952e-02
-2.943325362356032787e-02
-2.943325362356032787e-02
-1.765995217413619811e-02
-5.886650724712061411e-03
0.000000000000000000e+00
0.000000000000000000e+00
-4.709320579769651904e-02
-5.356852159487979215e-01
-7.240580391395839976e-01
-2.007347897126813940e+00
-3.567310339175511213e+00
-2.648992826120429189e+00
1.401022872481471504e+00
6.328149529065469459e+00
6.575388859503376260e+00
3.985262540630067907e+00
1.807201772486604074e+00
-2.001461246402101990e-01
-1.089030384071731916e+00
-1.030163876824611302e+00
-7.122847376901598748e-01
-5.062519623252376144e-01
-3.767456463815721524e-01
-2.943325362356032371e-01
-3.296524405838756056e-01
-3.061058376850273599e-01
-2.943325362356032371e-01
-2.531259811626188072e-01
-2.472393304379067180e-01
-2.178060768143464110e-01
-2.707859333367549914e-01
-2.943325362356032371e-01
-2.707859333367549914e-01
-2.884458855108911757e-01
-2.825592347861791143e-01
-2.943325362356032371e-01
-2.531259811626188072e-01
-1.118463637695292223e-01
-2.943325362356032371e-01
-3.531990434827238512e-01
-3.885189478309962752e-01
-4.414988043534048279e-01
-4.827053594263893133e-01
-4.885920101511013747e-01
-5.180252637746617372e-01
-4.768187087016772518e-01
-4.827053594263893133e-01
-4.591587565275410121e-01
-3.178791391344514827e-01
-2.884458855108911757e-01
-2.590126318873308686e-01
-1.589395695672257414e-01
-7.652645942125683998e-02
2.943325362356032787e-02
5.886650724712064880e-02
5.297985652240858739e-02
8.829976087068097668e-02
8.241311014596891527e-02
9.418641159539303809e-02
1.353929666683774957e-01
9.418641159539303809e-02
8.241311014596891527e-02
1.236196652189533451e-01
4.709320579769652598e-02
8.241311014596891527e-02
6.475315797183270328e-02
-5.886650724712061411e-03
5.886650724712064880e-02
8.241311014596891527e-02
2.943325362356032787e-02
2.354660289884826646e-02
5.886650724712068350e-03
5.297985652240858739e-02
8.241311014596891527e-02
8.241311014596891527e-02
8.829976087068097668e-02
8.241311014596891527e-02
2.001461246402102268e-01
8.829976087068097668e-02
7.652645942125682610e-02
5.297985652240858739e-02
1.177330144942412837e-01
1.118463637695292223e-01
4.709320579769652598e-02
7.063980869654479244e-02
7.652645942125682610e-02
5.297985652240858739e-02
8.829976087068097668e-02
4.120655507298445069e-02
1.471662681178016185e-01
4.120655507298445069e-02
7.063980869654479244e-02
5.886650724712068350e-03
6.475315797183270328e-02
4.709320579769652598e-02
-1.765995217413619117e-02
-1.765995217413619117e-02
4.120655507298445069e-02
1.177330144942412976e-02
5.886650724712068350e-03
5.886650724712068350e-03
-5.886650724712061411e-03
-5.886650724712068350e-03
1.765995217413619811e-02
1.177330144942412976e-02
-8.241311014596891527e-02
-3.531990434827238928e-02
0.000000000000000000e+00
-5.886650724712061411e-03
-1.765995217413619464e-02
-1.765995217413619464e-02
0.000000000000000000e+00
0.000000000000000000e+00
1.177330144942412976e-02
-1.765995217413619464e-02
-7.063980869654477857e-02
0.000000000000000000e+00
-4.709320579769651904e-02
-8.829976087068096280e-02
-1.765995217413619464e-02
-1.177330144942412803e-02
-4.709320579769651904e-02
1.765995217413619464e-02
2.295793782637705338e-01
3.178791391344514827e-01
3.178791391344514827e-01
1.236196652189533729e-01
4.709320579769651904e-02
1.177330144942412976e-01
2.354660289884825952e-02
-2.943325362356032093e-02
1.765995217413619811e-02
3.531990434827238928e-02
0.000000000000000000e+00
-1.765995217413619811e-02
-5.886650724712061411e-03
-1.177330144942412282e-02
0.000000000000000000e+00
-5.297985652240858045e-02
-5.886650724712065574e-02
-7.063980869654477857e-02
-1.883728231907860762e-01
-2.943325362356032093e-02
-4.356121536286927665e-01
-7.122847376901598748e-01
-1.689468757992362624e+00
-3.473123927580118231e+00
-3.072831678299698055e+00
1.118463637695292223e-01
5.362738810212691831e+00
6.569502208778664532e+00
4.303141679764519445e+00
2.284020481188281160e+00
1.059597130448171609e-01
-1.036050527549323474e+00
-1.047823828998747597e+00
-7.711512449372804889e-01
-5.945517231959185356e-01
-4.120655507298445208e-01
-3.355390913085876670e-01
-2.825592347861791143e-01
-3.061058376850273599e-01
-2.766725840614670529e-01
-2.354660289884825675e-01
-2.531259811626187517e-01
-2.236927275390584446e-01
-2.413526797131946289e-01
-1.883728231907860762e-01
-5.886650724712065574e-02
-2.001461246402101990e-01
-2.178060768143463832e-01
-2.060327753649222604e-01
-2.766725840614670529e-01
-2.590126318873308686e-01
0.000000000000000000e+00
-3.178791391344514827e-01
-1.942594739154981376e-01
-3.708589956568600909e-01
-4.120655507298445208e-01
-6.357582782689029655e-01
-6.357582782689029655e-01
-4.532721058028289507e-01
-4.709320579769651349e-01
-3.885189478309962752e-01
-3.355390913085876670e-01
-3.296524405838756056e-01
-1.942594739154981376e-01
-1.000730623201051134e-01
-4.709320579769651904e-02
0.000000000000000000e+00
0.000000000000000000e+00
0.000000000000000000e+00
0.000000000000000000e+00
5.886650724712065574e-02
8.829976087068096280e-02
4.709320579769651904e-02
8.241311014596891527e-02
6.475315797183271715e-02
6.475315797183271715e-02
0.000000000000000000e+00
0.000000000000000000e+00
5.886650724712068350e-03
2.943325362356032093e-02
6.475315797183271715e-02
6.475315797183271715e-02
2.943325362356032093e-02
5.297985652240858045e-02
1.000730623201051134e-01
8.829976087068096280e-02
4.120655507298445763e-02
5.886650724712065574e-02
9.418641159539305197e-02
9.418641159539305197e-02
1.118463637695292362e-01
1.118463637695292362e-01
9.418641159539305197e-02
7.652645942125683998e-02
5.886650724712065574e-02
2.943325362356032093e-02
7.652645942125683998e-02
9.418641159539305197e-02
7.652645942125683998e-02
1.000730623201051134e-01
9.418641159539305197e-02
4.120655507298445763e-02
7.063980869654477857e-02
4.120655507298445763e-02
4.120655507298445763e-02
4.120655507298445763e-02
1.765995217413619811e-02
5.886650724712068350e-03
-5.886650724712061411e-03
5.297985652240858045e-02
1.177330144942412976e-02
2.943325362356032093e-02
-5.886650724712061411e-03
5.886650724712068350e-03
0.000000000000000000e+00
1.177330144942412976e-02
-5.886650724712061411e-03
0.000000000000000000e+00
1.177330144942412976e-02
4.120655507298445763e-02
-1.177330144942413323e-02
-2.943325362356032787e-02
-1.765995217413619811e-02
4.120655507298445763e-02
-2.354660289884825952e-02
5.886650724712061411e-03
-4.709320579769651904e-02
-2.943325362356032440e-02
-2.354660289884825952e-02
-5.886650724712064880e-03
-2.943325362356032440e-02
-2.943325362356032440e-02
-1.177330144942412803e-02
-6.475315797183270328e-02
-8.241311014596891527e-02
-5.297985652240858045e-02
5.886650724712068350e-03
5.886650724712068350e-03
1.177330144942412976e-02
-1.177330144942412803e-02
1.765995217413619464e-02
5.886650724712064880e-03
1.177330144942413323e-02
2.354660289884825952e-02
1.765995217413619811e-02
4.120655507298445763e-02
1.000730623201050995e-01
1.295063159436654343e-01
1.412796173930895571e-01
1.236196652189533729e-01
-6.475315797183271715e-02
-2.943325362356032371e-01
-2.531259811626187517e-01
-2.531259811626187517e-01
-1.942594739154981376e-01
-2.236927275390584724e-01
-1.883728231907860762e-01
-5.886650724712064880e-02
5.886650724712065748e-03
5.886650724712065748e-03
4.120655507298445763e-02
2.354660289884825952e-02
0.000000000000000000e+00
-6.475315797183271715e-02
1.765995217413619464e-02
1.059597130448171609e-01
8.829976087068097668e-02
9.418641159539303809e-02
-3.414257420332997284e-01
-5.710051202970702899e-01
-1.807201772486603852e+00
-3.396597468158861766e+00
-2.619559572496869215e+00
1.018390575375187179e+00
5.898424026161488420e+00
6.375242734863165950e+00
4.061789000051324372e+00
2.089761007272783022e+00
4.120655507298445763e-02
-9.359774652292183195e-01
-9.124308623303700738e-01
-6.180983260947667812e-01
-4.827053594263892577e-01
-3.944055985557083366e-01
-3.237657898591635441e-01
-3.119924884097394213e-01
-3.002191869603152985e-01
-2.060327753649222604e-01
-2.236927275390584446e-01
-2.766725840614670529e-01
-1.942594739154981376e-01
-2.413526797131946289e-01
-1.942594739154981376e-01
-2.531259811626187517e-01
-2.472393304379066903e-01
-2.825592347861791143e-01
-2.884458855108911757e-01
-2.884458855108911757e-01
-2.884458855108911757e-01
-3.178791391344514827e-01
-4.709320579769651349e-01
-5.003653116005255530e-01
-5.062519623252376144e-01
-4.827053594263892577e-01
-5.121386130499496758e-01
-5.533451681229341057e-01
-5.239119144993737986e-01
-5.297985652240858601e-01
-4.650454072522530735e-01
-5.356852159487979215e-01
-3.590856942074359681e-01
-3.119924884097394213e-01
-1.883728231907860762e-01
-1.118463637695292362e-01
-1.236196652189533590e-01
-3.531990434827238234e-02
0.000000000000000000e+00
5.886650724712064880e-02
4.120655507298445763e-02
1.059597130448171609e-01
6.475315797183271715e-02
1.765995217413619464e-02
5.297985652240858739e-02
4.709320579769651904e-02
-4.709320579769651904e-02
-1.059597130448171609e-01
-8.829976087068097668e-02
-2.943325362356032093e-02
-7.652645942125683998e-02
0.000000000000000000e+00
-2.943325362356032440e-02
-2.354660289884825952e-02
1.765995217413619117e-02
2.943325362356032787e-02
6.475315797183271715e-02
4.120655507298445763e-02
0.000000000000000000e+00
3.531990434827238234e-02
4.709320579769651904e-02
1.765995217413619811e-02
1.177330144942413670e-02
0.000000000000000000e+00
-1.765995217413619811e-02
1.765995217413618423e-02
-9.418641159539303809e-02
-3.531990434827239622e-02
-2.354660289884825952e-02
-3.531990434827238928e-02
-3.531990434827238928e-02
2.943325362356032093e-02
3.531990434827238234e-02
2.354660289884825952e-02
0.000000000000000000e+00
-7.652645942125683998e-02
2.354660289884825952e-02
5.886650724712065574e-02
4.120655507298447151e-02
5.886650724712075289e-03
-1.059597130448171748e-01
-1.000730623201050995e-01
2.354660289884827340e-02
2.354660289884827340e-02
-4.709320579769651904e-02
-9.418641159539305197e-02
5.886650724712061411e-03
4.120655507298442988e-02
5.886650724712061411e-03
-8.241311014596891527e-02
-9.418641159539305197e-02
-8.241311014596891527e-02
-5.886650724712061411e-03
8.241311014596888751e-02
-5.886650724712061411e-03
-5.886650724712061411e-03
1.177330144942412282e-02
5.886650724712061411e-03
5.886650724712061411e-03
1.000730623201051273e-01
7.652645942125685385e-02
0.000000000000000000e+00
1.765995217413618423e-02
-3.531990434827238234e-02
-2.354660289884824564e-02
7.063980869654479244e-02
1.648262202919378028e-01
7.063980869654479244e-02
4.120655507298445763e-02
1.530529188425136800e-01
2.001461246402102268e-01
1.236196652189533729e-01
8.829976087068097668e-02
2.354660289884827340e-02
5.297985652240858045e-02
1.765995217413618423e-02
9.418641159539306584e-02
1.648262202919378028e-01
2.295793782637705338e-01
1.942594739154981653e-01
-1.236196652189533590e-01
-2.943325362356032371e-01
-1.236196652189533590e-01
-1.765995217413618423e-02
-2.354660289884824564e-02
1.765995217413618423e-02
8.241311014596891527e-02
1.648262202919378028e-01
2.236927275390584724e-01
1.648262202919378028e-01
2.943325362356033481e-02
1.648262202919378028e-01
1.118463637695292501e-01
1.295063159436654343e-01
2.001461246402102268e-01
2.884458855108912312e-01
2.178060768143464110e-01
1.765995217413618423e-02
-4.120655507298445208e-01
-6.475315797183270883e-01
-2.419413447856658461e+00
-2.878572204384199473e+00
-8.005844985608407960e-01
3.861642875411114506e+00
7.164053931974582845e+00
6.057363595728714856e+00
4.208955268169126462e+00
2.025007849300950458e+00
2.943325362356030706e-02
-9.300908145045061470e-01
-1.041937178274035425e+00
-8.359044029091131645e-01
-6.946247855160236906e-01
-5.356852159487979215e-01
-2.531259811626188072e-01
-2.648992826120429300e-01
-3.473123927580118453e-01
-3.355390913085877225e-01
-2.825592347861791143e-01
-2.295793782637705338e-01
-1.707128710166498642e-01
-1.707128710166498642e-01
-2.707859333367549914e-01
-2.707859333367549914e-01
-2.413526797131946566e-01
-2.531259811626187517e-01
-3.002191869603152985e-01
-2.707859333367549914e-01
-2.707859333367549914e-01
-3.237657898591635441e-01
-3.885189478309962752e-01
-4.591587565275410121e-01
-3.237657898591635441e-01
-5.533451681229341057e-01
-5.768917710217823513e-01
-6.298716275441909040e-01
-6.063250246453426584e-01
-5.592318188476461671e-01
-5.415718666735099829e-01
-5.356852159487979215e-01
-4.885920101511013747e-01
-3.119924884097394213e-01
-2.119194260896343218e-01
-8.241311014596888751e-02
-8.241311014596888751e-02
-2.354660289884824564e-02
1.000730623201050717e-01
2.119194260896343496e-01
2.766725840614669973e-01
2.707859333367549359e-01
1.883728231907860484e-01
2.178060768143464110e-01
2.766725840614669973e-01
2.707859333367549359e-01
2.766725840614669973e-01
2.766725840614669973e-01
2.766725840614669973e-01
2.648992826120428745e-01
2.060327753649222327e-01
2.472393304379067180e-01
2.236927275390584724e-01
2.766725840614669973e-01
3.531990434827239067e-01
2.884458855108911202e-01
2.766725840614669973e-01
2.943325362356031816e-01
3.061058376850273044e-01
2.354660289884825952e-01
2.531259811626187517e-01
2.766725840614669973e-01
2.001461246402101712e-01
1.883728231907860484e-01
1.883728231907860484e-01
1.412796173930895571e-01
1.059597130448171332e-01
1.824861724660739870e-01
8.829976087068094892e-02
7.063980869654476469e-02
1.530529188425136800e-01
1.530529188425136800e-01
8.829976087068094892e-02
8.829976087068094892e-02
2.943325362356033481e-02
7.063980869654476469e-02
6.475315797183270328e-02
5.297985652240858045e-02
0.000000000000000000e+00
-1.177330144942415058e-02
7.063980869654476469e-02
8.829976087068094892e-02
2.354660289884827340e-02
7.652645942125682610e-02
5.297985652240858045e-02
-3.531990434827239622e-02
6.475315797183273103e-02
4.120655507298448539e-02
-5.297985652240858045e-02
-2.943325362356033481e-02
5.297985652240858045e-02
5.297985652240858045e-02
0.000000000000000000e+00
-1.177330144942412282e-02
-4.120655507298445763e-02
-3.531990434827236847e-02
-2.354660289884824564e-02
-1.177330144942412282e-02
-1.177330144942412282e-02
0.000000000000000000e+00
-1.177330144942412282e-02
-1.765995217413619811e-02
-7.652645942125685385e-02
-7.652645942125685385e-02
-1.765995217413621199e-02
-5.886650724712089167e-03
0.000000000000000000e+00
5.886650724712089167e-03
1.412796173930895849e-01
2.707859333367549914e-01
2.354660289884826230e-01
7.063980869654476469e-02
4.709320579769651904e-02
8.241311014596891527e-02
0.000000000000000000e+00
-2.943325362356032093e-02
1.765995217413619811e-02
0.000000000000000000e+00
1.177330144942412282e-02
-2.943325362356033481e-02
-5.297985652240859433e-02
-1.118463637695292362e-01
-6.475315797183271715e-02
-3.531990434827239067e-01
0.000000000000000000e+00
-1.177330144942412282e-02
-5.886650724712061411e-03
-5.886650724712075289e-03
-1.765995217413619256e-01
-5.121386130499496758e-01
-1.330383063784926545e+00
-3.078718329024410227e+00
-2.990418568153728973e+00
-7.946978478361288456e-01
5.215572542094889741e+00
6.999227711682645570e+00
5.009539766729967702e+00
2.984531917429016801e+00
4.002922492804203980e-01
-8.123578000102649188e-01
-1.153783542043564703e+00
-8.653376565326735825e-01
-5.239119144993737986e-01
-4.473854550781169448e-01
-3.708589956568601465e-01
-3.237657898591635441e-01
-3.826322971062842693e-01
-3.061058376850273599e-01
-2.354660289884826230e-01
-2.178060768143463832e-01
-2.531259811626188072e-01
-1.883728231907860762e-01
-1.942594739154981376e-01
-2.178060768143463832e-01
-1.824861724660740148e-01
-2.178060768143463832e-01
-2.060327753649222604e-01
-1.824861724660740148e-01
-2.354660289884826230e-01
-3.061058376850273599e-01
-3.002191869603152985e-01
-3.061058376850273599e-01
-4.002922492804204535e-01
-4.650454072522531290e-01
-4.532721058028290062e-01
-5.003653116005255530e-01
-5.297985652240857490e-01
-4.885920101511013747e-01
-3.590856942074359126e-01
-4.002922492804204535e-01
-3.061058376850273599e-01
-3.002191869603152985e-01
-2.119194260896343218e-01
-1.530529188425137077e-01
-5.297985652240858045e-02
-5.297985652240858045e-02
1.765995217413621199e-02
1.177330144942413115e-01
1.295063159436654343e-01
1.412796173930895849e-01
1.412796173930895849e-01
1.177330144942413115e-01
1.000730623201051134e-01
6.475315797183273103e-02
4.709320579769651904e-02
5.297985652240858045e-02
7.652645942125685385e-02
6.475315797183273103e-02
7.652645942125685385e-02
-3.531990434827236847e-02
5.886650724712061411e-03
2.943325362356033481e-02
3.531990434827239622e-02
2.354660289884827340e-02
-2.354660289884824564e-02
2.943325362356033481e-02
4.709320579769651904e-02
5.297985652240858045e-02
7.063980869654479244e-02
5.297985652240858045e-02
7.063980869654479244e-02
0.000000000000000000e+00
8.829976087068097668e-02
7.652645942125685385e-02
2.354660289884827340e-02
3.531990434827239622e-02
9.418641159539305197e-02
4.120655507298445763e-02
2.354660289884827340e-02
1.765995217413621199e-02
1.059597130448171748e-01
2.943325362356033481e-02
4.709320579769651904e-02
5.886650724712066962e-02
2.943325362356033481e-02
9.418641159539305197e-02
4.120655507298445763e-02
2.943325362356033481e-02
5.297985652240858045e-02
4.709320579769651904e-02
2.354660289884827340e-02
-5.886650724712061411e-03
-2.943325362356030706e-02
-4.709320579769651904e-02
-3.531990434827236847e-02
-1.177330144942412282e-02
5.886650724712061411e-03
-1.177330144942412282e-02
0.000000000000000000e+00
0.000000000000000000e+00
-2.943325362356030706e-02
-1.177330144942412282e-02
1.765995217413621199e-02
-3.531990434827236847e-02
-5.886650724712064187e-02
-4.120655507298445763e-02
-3.531990434827239622e-02
-1.765995217413618423e-02
2.943325362356033481e-02
-1.177330144942412282e-02
2.354660289884827340e-02
1.177330144942412282e-02
-2.943325362356030706e-02
-2.943325362356030706e-02
-1.765995217413618423e-02
-1.177330144942412282e-02
-2.354660289884824564e-02
-3.531990434827239622e-02
-3.531990434827239622e-02
-5.886650724712064187e-02
-6.475315797183270328e-02
-3.531990434827239622e-02
-1.765995217413618423e-02
-2.354660289884827340e-02
-1.765995217413618423e-02
-2.354660289884827340e-02
-1.177330144942412282e-02
5.886650724712061411e-03
2.354660289884824564e-02
7.652645942125682610e-02
1.707128710166498919e-01
1.648262202919378028e-01
1.412796173930895294e-01
-1.059597130448171887e-01
-1.942594739154981653e-01
-1.177330144942413115e-01
-9.418641159539306584e-02
-7.063980869654476469e-02
-1.648262202919378028e-01
-1.236196652189533729e-01
2.354660289884824564e-02
1.118463637695292223e-01
6.475315797183270328e-02
1.236196652189533451e-01
8.829976087068094892e-02
5.886650724712064187e-02
3.531990434827236847e-02
5.886650724712064187e-02
9.418641159539303809e-02
1.295063159436654066e-01
8.829976087068094892e-02
-2.884458855108911202e-01
-6.004383739206305970e-01
-2.231040624665872496e+00
-3.408370769608285222e+00
-2.584239668148596181e+00
2.266360529014145087e+00
6.687235223272905316e+00
6.027930342105154438e+00
3.938169334832371415e+00
1.501095934801576437e+00
-2.707859333367549359e-01
-9.065442116056580124e-01
-7.534912927631443047e-01
-4.414988043534048279e-01
-3.002191869603152430e-01
-1.883728231907861039e-01
-1.707128710166499197e-01
-1.765995217413619811e-01
-8.829976087068100443e-02
-7.652645942125688161e-02
-1.059597130448171887e-01
-5.886650724712064187e-02
-5.297985652240858045e-02
-1.177330144942413115e-01
-1.000730623201050717e-01
-9.418641159539301033e-02
-1.412796173930895571e-01
-1.118463637695292501e-01
-1.177330144942412282e-02
-7.063980869654476469e-02
-1.236196652189533729e-01
-1.236196652189533729e-01
-1.824861724660739870e-01
-3.826322971062842138e-01
-2.119194260896343496e-01
-2.295793782637705338e-01
-3.119924884097393658e-01
-2.943325362356031816e-01
-2.648992826120428745e-01
-2.648992826120428745e-01
-2.236927275390584724e-01
-1.118463637695292501e-01
-1.118463637695292501e-01
-4.120655507298445763e-02
0.000000000000000000e+00
0.000000000000000000e+00
4.709320579769651904e-02
1.059597130448171748e-01
7.063980869654477857e-02
-5.886650724712065748e-03
0.000000000000000000e+00
1.000730623201050995e-01
4.120655507298445763e-02
1.177330144942412976e-02
2.354660289884825952e-02
0.000000000000000000e+00
-7.652645942125683998e-02
-1.177330144942412976e-02
-1.177330144942412976e-02
-2.943325362356032787e-02
-5.886650724712061411e-03
-1.765995217413619117e-02
-1.000730623201051134e-01
-3.531990434827239622e-02
-5.886650724712075289e-03
-4.120655507298445763e-02
-4.120655507298444375e-02
0.000000000000000000e+00
0.000000000000000000e+00
0.000000000000000000e+00
5.297985652240858045e-02
1.765995217413618423e-02
1.765995217413618423e-02
8.241311014596891527e-02
1.177330144942412282e-02
-1.177330144942412282e-02
1.177330144942412282e-02
-5.886650724712061411e-03
-3.531990434827236847e-02
0.000000000000000000e+00
2.943325362356033481e-02
0.000000000000000000e+00
4.120655507298445763e-02
4.120655507298445763e-02
2.354660289884827340e-02
-5.886650724712061411e-03
-8.241311014596890139e-02
2.354660289884827340e-02
1.765995217413618423e-02
5.297985652240858045e-02
-2.354660289884827340e-02
-5.297985652240858045e-02
0.000000000000000000e+00
-1.648262202919378305e-01
1.236196652189533451e-01
1.177330144942412282e-02
2.354660289884824564e-02
-1.177330144942412976e-01
-5.297985652240858045e-02
-1.177330144942412282e-02
-1.295063159436654066e-01
8.829976087068097668e-02
-2.354660289884824564e-02
0.000000000000000000e+00
-4.120655507298442988e-02
-5.297985652240858045e-02
5.886650724712061411e-03
-2.354660289884827340e-02
-5.886650724712066962e-02
3.531990434827236847e-02
-5.886650724712061411e-03
5.886650724712061411e-03
3.531990434827236847e-02
-2.354660289884824564e-02
-5.886650724712064187e-02
3.531990434827236847e-02
1.177330144942412282e-02
-1.765995217413618423e-02
2.354660289884824564e-02
0.000000000000000000e+00
-5.886650724712061411e-03
2.354660289884824564e-02
3.531990434827236847e-02
3.531990434827236847e-02
2.354660289884824564e-02
7.652645942125685385e-02
8.241311014596891527e-02
4.120655507298442988e-02
1.177330144942412837e-01
5.886650724712066962e-02
8.829976087068097668e-02
1.236196652189533451e-01
1.236196652189533451e-01
1.118463637695292223e-01
1.059597130448171609e-01
1.177330144942412837e-01
1.353929666683774680e-01
1.589395695672257691e-01
2.001461246402101990e-01
2.236927275390584446e-01
1.059597130448171609e-01
-1.530529188425136800e-01
-2.178060768143463832e-01
-1.353929666683774957e-01
-6.475315797183270328e-02
-8.241311014596891527e-02
-7.652645942125685385e-02
4.120655507298442988e-02
1.353929666683774680e-01
1.353929666683774680e-01
1.412796173930895294e-01
1.707128710166498919e-01
1.177330144942412837e-01
1.177330144942412837e-01
2.060327753649222604e-01
1.589395695672257691e-01
1.471662681178016463e-01
1.295063159436654066e-01
-6.475315797183270328e-02
-4.591587565275410676e-01
-1.106690336245868211e+00
-3.149358137720954520e+00
-2.990418568153728973e+00
-4.414988043534048834e-01
4.832940244988605194e+00
6.999227711682644681e+00
4.874146800061589957e+00
2.925665410181896409e+00
8.005844985608409070e-01
-5.827784217464944128e-01
-6.946247855160235796e-01
-4.709320579769651349e-01
-2.295793782637705061e-01
-1.118463637695292223e-01
-3.531990434827236847e-02
-1.177330144942412282e-02
2.943325362356030706e-02
5.886650724712064187e-02
-5.886650724712065574e-02
0.000000000000000000e+00
0.000000000000000000e+00
-5.886650724712061411e-03
2.354660289884824564e-02
0.000000000000000000e+00
-9.418641159539303809e-02
-1.000730623201051134e-01
-9.418641159539305197e-02
-3.531990434827239622e-02
-2.943325362356033481e-02
1.177330144942412282e-02
0.000000000000000000e+00
-9.418641159539305197e-02
-1.295063159436654343e-01
-2.119194260896343496e-01
-2.590126318873308686e-01
-2.295793782637705616e-01
-2.236927275390584724e-01
-3.002191869603153540e-01
-2.648992826120429300e-01
-2.178060768143464110e-01
-1.589395695672257691e-01
-7.063980869654477857e-02
2.943325362356033481e-02
1.353929666683774957e-01
1.353929666683774957e-01
2.178060768143463832e-01
2.178060768143463832e-01
2.178060768143463832e-01
2.707859333367549914e-01
2.354660289884825675e-01
1.707128710166498919e-01
1.412796173930895571e-01
1.648262202919378305e-01
1.824861724660740148e-01
1.118463637695292223e-01
7.063980869654476469e-02
1.177330144942412282e-02
0.000000000000000000e+00
3.531990434827239622e-02
7.652645942125682610e-02
4.120655507298447151e-02
6.475315797183271715e-02
5.297985652240859433e-02
5.297985652240858045e-02
1.118463637695292223e-01
1.118463637695292223e-01
3.531990434827238234e-02
-2.943325362356032440e-02
1.177330144942412976e-02
5.886650724712064880e-02
1.177330144942412976e-02
2.943325362356032440e-02
-1.765995217413619464e-02
-6.475315797183270328e-02
1.177330144942412976e-02
1.765995217413619464e-02
-6.475315797183271715e-02
-4.120655507298445069e-02
5.297985652240858045e-02
2.943325362356032787e-02
-1.765995217413619811e-02
-5.886650724712064187e-02
1.765995217413619811e-02
-1.177330144942413670e-02
-3.531990434827239622e-02
5.886650724712061411e-03
-1.765995217413621199e-02
-5.886650724712089167e-03
1.177330144942412282e-02
-1.765995217413621199e-02
-5.886650724712061411e-03
3.002191869603153540e-01
5.886650724712089167e-03
4.709320579769653292e-02
1.765995217413621199e-02
0.000000000000000000e+00
-1.177330144942412282e-02
5.886650724712061411e-03
0.000000000000000000e+00
-2.354660289884824564e-02
-1.177330144942412282e-02
-1.177330144942412282e-02
-1.765995217413621199e-02
1.177330144942412282e-02
-2.943325362356033481e-02
-7.652645942125688161e-02
-1.177330144942415058e-02
3.531990434827239622e-02
0.000000000000000000e+00
-1.177330144942412282e-02
0.000000000000000000e+00
-4.120655507298442988e-02
-1.177330144942412282e-02
2.354660289884824564e-02
2.943325362356033481e-02
2.943325362356033481e-02
8.829976087068097668e-02
-1.765995217413618423e-02
-3.531990434827236847e-02
-7.063980869654479244e-02
0.000000000000000000e+00
-5.297985652240860821e-02
-4.120655507298448539e-02
2.943325362356030706e-02
2.943325362356030706e-02
-8.829976087068097668e-02
5.886650724712061411e-03
-1.765995217413623974e-02
-7.652645942125679834e-02
2.943325362356036257e-02
5.886650724712066962e-02
-7.063980869654473693e-02
3.531990434827242398e-02
7.063980869654479244e-02
1.765995217413618423e-02
6.475315797183273103e-02
0.000000000000000000e+00
0.000000000000000000e+00
-1.118463637695292223e-01
-3.237657898591635441e-01
-2.295793782637705616e-01
-9.418641159539303809e-02
-5.886650724712066962e-02
-5.886650724712061411e-03
-2.943325362356036257e-02
5.886650724712061411e-03
-2.943325362356036257e-02
5.886650724712061411e-03
4.120655507298442988e-02
9.418641159539303809e-02
5.886650724712061411e-03
1.295063159436654066e-01
1.707128710166498642e-01
7.063980869654479244e-02
2.354660289884830116e-02
-1.353929666683775235e-01
-5.180252637746617372e-01
-1.036050527549323252e+00
-2.643106175395717017e+00
-2.648992826120429189e+00
-6.710781826171753339e-01
4.685773976870803104e+00
6.940361204435524733e+00
5.651184695723582507e+00
3.938169334832371415e+00
1.312723111610790472e+00
-4.238388521792686436e-01
-1.041937178274035425e+00
-1.000730623201051106e+00
-8.476777043585373983e-01
-6.593048811677512111e-01
-3.708589956568600909e-01
-2.354660289884825675e-01
-3.649723449321480295e-01
-3.061058376850273044e-01
-2.295793782637705061e-01
-2.648992826120428745e-01
-2.825592347861790588e-01
-2.884458855108911202e-01
-2.236927275390584446e-01
-2.178060768143463832e-01
-2.943325362356031816e-01
-2.884458855108911202e-01
-2.943325362356031816e-01
1.530529188425137077e-01
-2.590126318873308131e-01
-4.414988043534048279e-01
-2.766725840614669973e-01
-1.942594739154981376e-01
-4.709320579769651349e-01
-5.415718666735099829e-01
-5.356852159487979215e-01
-5.768917710217823513e-01
-5.710051202970702899e-01
-4.944786608758133806e-01
-4.827053594263892577e-01
-3.649723449321480295e-01
-3.826322971062842138e-01
5.886650724712066962e-02
-3.473123927580118453e-01
-2.236927275390584446e-01
-1.942594739154981376e-01
-5.297985652240860821e-02
3.531990434827236847e-02
5.886650724712089167e-03
-4.120655507298445763e-02
4.709320579769651904e-02
5.297985652240858045e-02
9.418641159539303809e-02
1.412796173930895571e-01
9.418641159539305197e-02
-2.354660289884827340e-02
-1.000730623201050995e-01
-2.943325362356033481e-02
-5.886650724712064187e-02
1.177330144942412282e-02
7.652645942125683998e-02
7.652645942125683998e-02
7.652645942125683998e-02
1.059597130448171609e-01
1.353929666683774957e-01
1.353929666683774957e-01
1.648262202919378305e-01
1.648262202919378305e-01
9.418641159539303809e-02
1.295063159436654343e-01
5.297985652240858045e-02
4.709320579769651904e-02
1.765995217413619811e-02
4.709320579769651904e-02
2.354660289884825952e-02
0.000000000000000000e+00
-2.943325362356032093e-02
4.709320579769651904e-02
-2.354660289884825952e-02
-8.241311014596890139e-02
-5.297985652240859433e-02
-6.475315797183271715e-02
-7.652645942125683998e-02
-7.652645942125683998e-02
-1.000730623201051134e-01
0.000000000000000000e+00
-4.120655507298444375e-02
-5.297985652240859433e-02
-4.709320579769653292e-02
5.297985652240858045e-02
4.709320579769651904e-02
-2.943325362356032093e-02
5.297985652240858045e-02
3.531990434827238234e-02
-3.531990434827238234e-02
-9.418641159539305197e-02
-5.297985652240859433e-02
5.297985652240858045e-02
4.709320579769651904e-02
1.765995217413619811e-02
-2.354660289884825952e-02
-4.120655507298444375e-02
4.120655507298445763e-02
-1.177330144942413670e-02
-2.354660289884825952e-02
4.709320579769651904e-02
3.531990434827238234e-02
1.177330144942412282e-02
0.000000000000000000e+00
4.709320579769651904e-02
1.765995217413619811e-02
3.531990434827238234e-02
5.297985652240858045e-02
8.241311014596890139e-02
5.297985652240858045e-02
-1.177330144942413670e-02
-1.765995217413619811e-02
-5.886650724712065574e-02
-2.354660289884825952e-02
-5.886650724712061411e-03
-1.765995217413619811e-02
-2.354660289884825952e-02
3.531990434827238234e-02
3.531990434827238234e-02
8.241311014596890139e-02
1.000730623201050995e-01
5.886650724712061411e-03
-1.471662681178016463e-01
-3.002191869603153540e-01
-2.648992826120429300e-01
-1.824861724660740148e-01
-1.236196652189533451e-01
-1.177330144942413115e-01
-1.295063159436654343e-01
4.120655507298445763e-02
8.241311014596891527e-02
6.475315797183271715e-02
5.886650724712064187e-02
1.059597130448171609e-01
6.475315797183271715e-02
2.354660289884825952e-02
7.652645942125683998e-02
8.829976087068099055e-02
8.241311014596891527e-02
0.000000000000000000e+00
-4.061789000051325149e-01
-6.828514840665995678e-01
-2.460620002929643224e+00
-3.025738472502001564e+00
-1.159670192768276653e+00
3.602630243523783360e+00
7.075754171103902479e+00
5.721824504420127688e+00
3.490783879754254304e+00
1.324496413060214595e+00
-3.944055985557082811e-01
-9.654107188527785155e-01
-8.064711492855529684e-01
-5.180252637746616262e-01
-3.767456463815720968e-01
-2.766725840614670529e-01
-1.824861724660740148e-01
-2.354660289884825675e-01
-1.824861724660740148e-01
-1.177330144942412837e-01
-1.412796173930895294e-01
-1.236196652189533451e-01
-1.471662681178015908e-01
-1.295063159436654066e-01
-1.059597130448171609e-01
-8.829976087068094892e-02
-8.829976087068094892e-02
-1.177330144942412837e-01
-1.412796173930895294e-01
-1.471662681178015908e-01
-1.824861724660740148e-01
-1.942594739154981376e-01
-2.472393304379066903e-01
-2.825592347861791143e-01
-4.061789000051325149e-01
-3.649723449321479740e-01
-3.767456463815720968e-01
-3.885189478309962197e-01
-3.708589956568600354e-01
-3.531990434827238512e-01
-3.473123927580117898e-01
-2.413526797131946289e-01
-2.001461246402101990e-01
-1.883728231907860762e-01
-3.531990434827236847e-02
0.000000000000000000e+00
0.000000000000000000e+00
7.652645942125685385e-02
-7.652645942125685385e-02
1.177330144942413670e-02
0.000000000000000000e+00
7.063980869654479244e-02
6.475315797183273103e-02
7.063980869654479244e-02
1.059597130448171609e-01
6.475315797183273103e-02
6.475315797183273103e-02
6.475315797183273103e-02
5.297985652240859433e-02
1.765995217413619811e-02
7.652645942125685385e-02
1.236196652189533729e-01
7.652645942125685385e-02
8.241311014596891527e-02
1.412796173930895571e-01
1.471662681178016185e-01
1.530529188425136800e-01
1.530529188425136800e-01
9.418641159539303809e-02
1.589395695672257691e-01
1.412796173930895571e-01
1.412796173930895571e-01
1.236196652189533729e-01
1.412796173930895571e-01
1.530529188425136800e-01
1.236196652189533729e-01
9.418641159539303809e-02
7.652645942125685385e-02
6.475315797183273103e-02
0.000000000000000000e+00
6.475315797183273103e-02
6.475315797183273103e-02
4.120655507298445763e-02
7.063980869654479244e-02
1.177330144942413670e-02
5.886650724712075289e-03
7.063980869654479244e-02
3.531990434827239622e-02
-1.765995217413619117e-02
4.120655507298445763e-02
5.297985652240859433e-02
-2.354660289884825258e-02
-1.177330144942412282e-02
3.531990434827239622e-02
5.297985652240859433e-02
5.886650724712075289e-03
5.886650724712064187e-02
-2.943325362356032093e-02
-2.943325362356032093e-02
-1.765995217413619117e-02
5.886650724712061411e-03
1.765995217413619811e-02
0.000000000000000000e+00
0.000000000000000000e+00
-4.120655507298445763e-02
-5.886650724712061411e-03
7.652645942125685385e-02
-5.886650724712068350e-03
0.000000000000000000e+00
5.886650724712061411e-03
-2.354660289884825952e-02
2.354660289884825952e-02
0.000000000000000000e+00
-1.765995217413619117e-02
-1.765995217413619117e-02
5.297985652240858739e-02
3.531990434827238928e-02
8.829976087068097668e-02
7.652645942125685385e-02
-8.241311014596891527e-02
-1.765995217413619534e-01
-1.589395695672257691e-01
-8.829976087068097668e-02
-1.707128710166498919e-01
-1.530529188425137077e-01
-5.886650724712064880e-03
1.765995217413619464e-02
2.354660289884826299e-02
4.709320579769651904e-02
4.120655507298445763e-02
-3.531990434827238928e-02
5.886650724712064880e-03
-1.177330144942413150e-02
0.000000000000000000e+00
7.652645942125683998e-02
9.418641159539303809e-02
-2.119194260896343218e-01
-5.827784217464944128e-01
-1.218536700015397489e+00
-3.155244788445666693e+00
-3.178791391344514938e+00
-4.944786608758134361e-01
4.838826895713316922e+00
7.205260487047566720e+00
4.868260149336877340e+00
2.766725840614670417e+00
4.944786608758134361e-01
-7.829245463867046118e-01
-9.712973695774906879e-01
-7.476046420384322433e-01
-4.944786608758134361e-01
-3.061058376850274154e-01
-2.707859333367549914e-01
-2.001461246402101990e-01
-1.648262202919378028e-01
-1.883728231907860762e-01
-2.001461246402101990e-01
-1.118463637695292223e-01
-1.118463637695292223e-01
-9.418641159539303809e-02
-8.829976087068096280e-02
-1.118463637695292223e-01
-1.295063159436654343e-01
-1.353929666683774957e-01
-1.412796173930895571e-01
-1.589395695672257414e-01
-1.824861724660740148e-01
-2.060327753649222604e-01
-2.295793782637705338e-01
-2.472393304379067180e-01
-2.531259811626188072e-01
-3.178791391344515382e-01
-4.061789000051325149e-01
-4.061789000051325149e-01
-3.473123927580118453e-01
-3.944055985557083921e-01
-3.414257420332997839e-01
-2.472393304379067180e-01
-2.354660289884825952e-01
-1.589395695672257414e-01
-7.063980869654477857e-02
-1.765995217413619464e-02
0.000000000000000000e+00
0.000000000000000000e+00
0.000000000000000000e+00
0.000000000000000000e+00
0.000000000000000000e+00
1.765995217413618423e-02
2.943325362356030706e-02
2.943325362356030706e-02
3.531990434827236847e-02
0.000000000000000000e+00
5.297985652240858045e-02
5.297985652240858045e-02
1.765995217413618423e-02
-5.886650724712061411e-03
3.531990434827236847e-02
6.475315797183270328e-02
1.177330144942412282e-02
5.886650724712064187e-02
2.943325362356030706e-02
7.652645942125682610e-02
9.418641159539303809e-02
9.418641159539303809e-02
1.589395695672257414e-01
9.418641159539303809e-02
1.295063159436654343e-01
1.118463637695292501e-01
1.353929666683774957e-01
1.059597130448171609e-01
1.000730623201050995e-01
1.707128710166498642e-01
1.000730623201050995e-01
1.059597130448171609e-01
5.886650724712064187e-02
4.002922492804203980e-01
9.418641159539303809e-02
1.059597130448171609e-01
5.886650724712064187e-02
4.709320579769651904e-02
4.709320579769651904e-02
5.886650724712064187e-02
1.059597130448171609e-01
-5.886650724712061411e-03
-5.886650724712061411e-03
-5.886650724712061411e-03
2.943325362356030706e-02
5.886650724712061411e-03
4.709320579769651904e-02
7.063980869654476469e-02
1.177330144942412282e-02
2.354660289884824564e-02
-5.886650724712061411e-03
-5.886650724712061411e-03
-5.886650724712061411e-03
4.709320579769651904e-02
0.000000000000000000e+00
-1.177330144942413670e-02
1.177330144942412282e-02
5.886650724712061411e-03
0.000000000000000000e+00
-1.765995217413621199e-02
-3.531990434827239622e-02
-1.177330144942413670e-02
2.354660289884825952e-02
-5.886650724712075289e-03
0.000000000000000000e+00
7.063980869654479244e-02
-1.765995217413618423e-02
4.120655507298445763e-02
1.236196652189533451e-01
5.886650724712061411e-03
-8.829976087068097668e-02
0.000000000000000000e+00
-2.943325362356032440e-02
-8.241311014596891527e-02
-2.354660289884826299e-02
5.886650724712061411e-03
0.000000000000000000e+00
0.000000000000000000e+00
5.886650724712061411e-03
0.000000000000000000e+00
-4.709320579769651904e-02
-5.886650724712068350e-03
-3.531990434827238928e-02
-5.886650724712061411e-03
1.177330144942412976e-02
5.297985652240859433e-02
-1.648262202919378028e-01
-6.298716275441910151e-01
-1.018390575375187179e+00
-2.902118807283047719e+00
-3.402484118883573494e+00
-1.295063159436654399e+00
3.867529526135826679e+00
7.381860008788929228e+00
5.403945365285675706e+00
3.314184358012892684e+00
1.018390575375187179e+00
-6.769648333418875064e-01
-1.112576986970580384e+00
-8.594510058079615211e-01
-5.651184695723582285e-01
-3.590856942074359681e-01
-3.296524405838756056e-01
-2.943325362356032371e-01
-2.825592347861791143e-01
-2.590126318873308686e-01
-2.766725840614670529e-01
-2.648992826120429300e-01
-2.648992826120429300e-01
-2.648992826120429300e-01
-1.589395695672257414e-01
-2.060327753649222604e-01
-2.472393304379067180e-01
-1.648262202919378028e-01
-2.295793782637705338e-01
-2.766725840614670529e-01
-2.825592347861791143e-01
-2.590126318873308686e-01
-3.178791391344514827e-01
-3.590856942074359681e-01
-3.473123927580118453e-01
-3.708589956568600909e-01
-4.591587565275410676e-01
-4.944786608758134361e-01
-5.356852159487979215e-01
-5.592318188476461671e-01
-5.003653116005255530e-01
-4.532721058028290062e-01
-4.473854550781169448e-01
-3.885189478309962752e-01
-2.413526797131946566e-01
-1.942594739154981376e-01
-1.589395695672257691e-01
-4.120655507298445763e-02
7.063980869654477857e-02
7.063980869654477857e-02
1.412796173930895571e-01
2.354660289884825952e-01
2.001461246402101990e-01
1.942594739154981376e-01
1.824861724660740148e-01
1.765995217413619534e-01
1.942594739154981376e-01
2.295793782637705338e-01
1.707128710166498642e-01
1.412796173930895571e-01
2.001461246402101990e-01
1.824861724660740148e-01
1.353929666683774957e-01
1.824861724660740148e-01
2.060327753649222604e-01
1.824861724660740148e-01
1.883728231907860762e-01
2.590126318873308686e-01
2.295793782637705338e-01
2.648992826120429300e-01
2.884458855108911757e-01
1.942594739154981376e-01
1.824861724660740148e-01
1.942594739154981376e-01
1.353929666683774957e-01
1.471662681178016185e-01
1.177330144942413115e-01
7.063980869654477857e-02
7.652645942125685385e-02
1.353929666683774957e-01
1.530529188425136800e-01
5.297985652240858739e-02
9.418641159539303809e-02
1.177330144942413115e-01
7.063980869654477857e-02
8.241311014596891527e-02
7.652645942125685385e-02
-1.177330144942412976e-02
4.709320579769651904e-02
8.241311014596891527e-02
6.475315797183271715e-02
-5.886650724712061411e-03
2.943325362356032787e-02
2.354660289884825952e-02
0.000000000000000000e+00
0.000000000000000000e+00
7.063980869654477857e-02
0.000000000000000000e+00
1.765995217413619464e-02
0.000000000000000000e+00
-4.709320579769652598e-02
-1.177330144942412976e-02
1.177330144942412976e-02
-1.177330144942412976e-02
-1.765995217413619117e-02
-1.177330144942412976e-02
-2.943325362356032093e-02
-2.354660289884825952e-02
1.177330144942412976e-02
1.177330144942412976e-02
-2.354660289884825952e-02
-2.354660289884825952e-02
5.297985652240858045e-02
-5.886650724712075289e-03
1.765995217413619117e-02
2.354660289884825258e-02
1.177330144942412282e-02
0.000000000000000000e+00
-2.354660289884825952e-02
-5.297985652240859433e-02
-6.475315797183271715e-02
-3.531990434827239622e-02
-1.765995217413619811e-02
-4.709320579769651904e-02
1.177330144942412282e-02
1.177330144942412282e-02
0.000000000000000000e+00
-4.120655507298445763e-02
1.765995217413619811e-02
5.886650724712075289e-03
-1.177330144942412282e-02
1.765995217413619811e-02
5.886650724712065574e-02
8.829976087068097668e-02
1.295063159436654343e-01
2.943325362356032093e-02
-2.943325362356032371e-01
-3.473123927580118453e-01
-3.061058376850273599e-01
-2.472393304379067458e-01
-2.119194260896343218e-01
-1.765995217413619534e-01
-1.059597130448171609e-01
0.000000000000000000e+00
8.241311014596890139e-02
8.241311014596890139e-02
2.943325362356032093e-02
2.943325362356032093e-02
1.177330144942412282e-02
-1.177330144942412282e-02
1.177330144942412282e-02
1.295063159436654343e-01
1.177330144942412976e-01
0.000000000000000000e+00
-4.473854550781169448e-01
-8.712243072573855329e-01
-2.908005458007760335e+00
-3.202337994243363628e+00
-1.536415839149848805e+00
3.231771247866923602e+00
6.946247855160236462e+00
5.309758953690282723e+00
3.402484118883573494e+00
1.259743255088382030e+00
-6.416449289936150269e-01
-1.077257082622307793e+00
-8.476777043585372873e-01
-5.415718666735098719e-01
-4.120655507298445763e-01
-2.707859333367549914e-01
-2.354660289884826230e-01
-2.413526797131946844e-01
-1.824861724660740148e-01
-1.412796173930895849e-01
-1.942594739154981376e-01
-1.942594739154981376e-01
-1.765995217413619534e-01
-2.119194260896343218e-01
-2.531259811626188072e-01
-2.001461246402101990e-01
-2.413526797131946844e-01
-3.178791391344514827e-01
-2.707859333367549914e-01
-2.648992826120429300e-01
-3.414257420332997284e-01
-3.237657898591635441e-01
-3.590856942074359126e-01
-4.532721058028290062e-01
-4.768187087016772518e-01
-5.297985652240857490e-01
-6.004383739206307080e-01
-6.416449289936150269e-01
-6.180983260947667812e-01
-5.415718666735098719e-01
-5.239119144993737986e-01
-4.238388521792686991e-01
-3.061058376850273599e-01
-2.884458855108911757e-01
-1.765995217413619534e-01
-1.236196652189533451e-01
-1.177330144942412837e-01
-2.943325362356033481e-02
4.709320579769651904e-02
-1.765995217413618423e-02
4.120655507298445763e-02
1.000730623201051134e-01
1.059597130448171748e-01
1.059597130448171748e-01
1.059597130448171887e-01
4.120655507298447151e-02
4.709320579769653292e-02
7.652645942125685385e-02
7.063980869654479244e-02
4.709320579769653292e-02
1.000730623201051134e-01
1.353929666683774957e-01
4.709320579769653292e-02
4.120655507298447151e-02
9.418641159539305197e-02
1.059597130448171887e-01
8.829976087068099055e-02
1.530529188425137077e-01
1.824861724660740148e-01
1.295063159436654343e-01
1.648262202919378305e-01
9.418641159539305197e-02
1.177330144942415058e-02
1.000730623201051134e-01
1.059597130448171887e-01
1.000730623201051134e-01
3.531990434827239622e-02
7.063980869654479244e-02
5.886650724712089167e-03
2.354660289884827340e-02
7.063980869654479244e-02
0.000000000000000000e+00
-5.886650724712064187e-02
4.709320579769653292e-02
9.418641159539305197e-02
-2.354660289884824564e-02
-1.177330144942412282e-02
-5.886650724712064187e-02
-4.709320579769651904e-02
4.120655507298447151e-02
7.063980869654479244e-02
1.177330144942415058e-02
-6.475315797183270328e-02
-1.177330144942412282e-02
7.063980869654479244e-02
1.765995217413621199e-02
-2.354660289884824564e-02
0.000000000000000000e+00
-5.886650724712061411e-03
0.000000000000000000e+00
1.765995217413621199e-02
1.177330144942415058e-02
-1.295063159436654066e-01
-8.829976087068094892e-02
-8.829976087068094892e-02
-2.943325362356030706e-02
-2.943325362356030706e-02
5.886650724712089167e-03
2.354660289884827340e-02
-5.886650724712061411e-03
-4.709320579769651904e-02
0.000000000000000000e+00
1.000730623201051134e-01
5.886650724712089167e-03
-7.063980869654476469e-02
0.000000000000000000e+00
1.765995217413621199e-02
-5.886650724712064187e-02
5.886650724712089167e-03
0.000000000000000000e+00
-5.886650724712061411e-03
-2.354660289884824564e-02
3.531990434827239622e-02
-1.765995217413618423e-02
-5.297985652240858045e-02
2.766725840614670529e-01
1.530529188425137077e-01
2.354660289884827340e-02
9.418641159539305197e-02
1.118463637695292501e-01
7.652645942125685385e-02
7.652645942125685385e-02
9.418641159539305197e-02
-1.471662681178015908e-01
-4.532721058028290062e-01
-3.355390913085876670e-01
-2.413526797131946289e-01
-1.295063159436654066e-01
-1.118463637695292223e-01
-1.353929666683774680e-01
0.000000000000000000e+00
1.118463637695292362e-01
-2.943325362356030706e-02
-8.241311014596891527e-02
-1.177330144942412282e-02
4.709320579769651904e-02
1.765995217413621199e-02
2.354660289884824564e-02
2.943325362356030706e-02
5.886650724712064187e-02
1.412796173930895294e-01
-2.590126318873308686e-01
-4.827053594263893133e-01
-1.713015360891210870e+00
-3.055171726125561538e+00
-1.877841581183148589e+00
1.760108566688907361e+00
6.257509720368924278e+00
6.281056323267772967e+00
4.756413785567348285e+00
2.872685553659487745e+00
5.827784217464944128e-01
-8.535643550832494597e-01
-1.100803685521156261e+00
-9.300908145045063691e-01
-6.534182304430391497e-01
-4.591587565275410676e-01
-3.708589956568601465e-01
-3.649723449321480850e-01
-3.826322971062842693e-01
-2.413526797131946844e-01
-2.354660289884826230e-01
-2.295793782637705616e-01
-2.001461246402101990e-01
-2.060327753649222604e-01
-2.531259811626188072e-01
-2.295793782637705616e-01
-2.236927275390585002e-01
-2.001461246402101990e-01
-2.178060768143464387e-01
-2.707859333367549914e-01
-3.296524405838756056e-01
-3.296524405838756056e-01
-2.943325362356032371e-01
-3.178791391344514827e-01
-4.120655507298445763e-01
-4.827053594263893133e-01
-5.180252637746616262e-01
-5.533451681229342167e-01
-5.239119144993737986e-01
-4.650454072522531290e-01
-4.297255029039807606e-01
-4.768187087016772518e-01
-4.120655507298445763e-01
-3.414257420332997284e-01
-2.531259811626188072e-01
-7.063980869654479244e-02
0.000000000000000000e+00
0.000000000000000000e+00
0.000000000000000000e+00
0.000000000000000000e+00
2.354660289884827340e-02
1.412796173930895849e-01
1.118463637695292501e-01
1.059597130448171887e-01
1.530529188425137077e-01
1.236196652189534007e-01
1.118463637695292501e-01
1.000730623201051273e-01
1.942594739154981376e-01
1.942594739154981376e-01
2.001461246402101990e-01
2.001461246402101990e-01
2.590126318873308686e-01
2.531259811626188072e-01
2.590126318873308686e-01
2.884458855108911757e-01
1.942594739154981376e-01
2.472393304379067458e-01
3.002191869603152985e-01
1.942594739154981376e-01
1.059597130448171887e-01
2.236927275390585002e-01
1.883728231907860762e-01
1.118463637695292501e-01
1.177330144942413115e-01
1.000730623201051273e-01
9.418641159539303809e-02
9.418641159539303809e-02
8.241311014596891527e-02
2.354660289884827340e-02
4.709320579769651904e-02
8.241311014596891527e-02
5.886650724712089167e-03
4.709320579769651904e-02
7.063980869654479244e-02
3.531990434827239622e-02
4.709320579769651904e-02
4.709320579769651904e-02
4.709320579769651904e-02
0.000000000000000000e+00
0.000000000000000000e+00
5.886650724712089167e-03
4.120655507298445763e-02
4.120655507298445763e-02
4.709320579769651904e-02
-1.177330144942412282e-02
-1.177330144942412282e-02
1.177330144942415058e-02
-1.177330144942412282e-02
-2.354660289884825952e-02
1.765995217413621199e-02
-3.531990434827238234e-02
-7.063980869654476469e-02
2.943325362356033481e-02
0.000000000000000000e+00
-4.709320579769651210e-02
-5.886650724712061411e-03
5.886650724712061411e-03
5.297985652240859433e-02
-5.886650724712061411e-03
-2.943325362356032787e-02
2.354660289884825952e-02
-1.765995217413619811e-02
-1.765995217413619117e-02
-1.765995217413619811e-02
0.000000000000000000e+00
8.829976087068097668e-02
0.000000000000000000e+00
-1.765995217413619117e-02
2.943325362356032787e-02
1.765995217413619117e-02
-5.886650724712064880e-02
-5.886650724712061411e-03
7.063980869654479244e-02
5.886650724712064880e-02
5.886650724712061411e-03
-9.418641159539303809e-02
-2.707859333367549914e-01
-4.120655507298445763e-02
-1.707128710166498919e-01
-1.471662681178016185e-01
-2.413526797131946844e-01
-1.000730623201051134e-01
-2.354660289884825952e-02
5.297985652240858739e-02
1.000730623201050995e-01
-7.063980869654477857e-02
0.000000000000000000e+00
4.120655507298445069e-02
4.709320579769651904e-02
1.059597130448171748e-01
9.418641159539303809e-02
9.418641159539303809e-02
0.000000000000000000e+00
-2.531259811626188072e-01
-5.121386130499495648e-01
-1.636488901469954182e+00
-3.225884597142211430e+00
-2.401753495682522388e+00
1.083143733347019966e+00
5.980837136307457946e+00
6.363469433413742493e+00
4.438534646432897190e+00
2.378206892783674142e+00
2.531259811626188072e-01
-8.241311014596890416e-01
-9.830706710269148108e-01
-7.181713884148718252e-01
-4.061789000051325149e-01
-2.884458855108911757e-01
-2.531259811626188072e-01
-2.354660289884825952e-01
-2.236927275390584446e-01
-2.236927275390584446e-01
-1.883728231907860762e-01
-1.295063159436654066e-01
-1.353929666683774680e-01
-1.295063159436654066e-01
-1.059597130448171748e-01
-1.412796173930895571e-01
-1.883728231907860762e-01
-1.883728231907860762e-01
-2.119194260896343218e-01
-2.119194260896343218e-01
-2.060327753649222604e-01
-2.707859333367549914e-01
-3.237657898591635997e-01
-2.472393304379067180e-01
-3.119924884097394768e-01
-3.885189478309962752e-01
-4.179522014545566377e-01
-4.179522014545566377e-01
-4.356121536286928220e-01
-4.179522014545566377e-01
-4.179522014545566377e-01
-3.885189478309962752e-01
-3.355390913085877225e-01
-2.531259811626188072e-01
-2.295793782637705061e-01
-1.412796173930895571e-01
-2.354660289884825952e-02
1.177330144942412976e-02
-1.177330144942412976e-02
5.886650724712061411e-03
5.886650724712064187e-02
1.059597130448171609e-01
1.530529188425136800e-01
1.353929666683774957e-01
1.295063159436654343e-01
1.471662681178016185e-01
1.295063159436654343e-01
1.236196652189533729e-01
1.059597130448171609e-01
9.418641159539303809e-02
7.652645942125682610e-02
1.000730623201050995e-01
1.471662681178016185e-01
1.648262202919378028e-01
1.059597130448171609e-01
1.589395695672257414e-01
1.824861724660739870e-01
1.530529188425136800e-01
1.824861724660739870e-01
2.119194260896343496e-01
1.765995217413619256e-01
1.589395695672257414e-01
1.707128710166498642e-01
1.118463637695292501e-01
8.241311014596888751e-02
1.530529188425136800e-01
1.000730623201050995e-01
7.063980869654476469e-02
1.059597130448171609e-01
7.652645942125682610e-02
3.531990434827236847e-02
7.652645942125682610e-02
2.943325362356030706e-02
2.354660289884824564e-02
1.177330144942412282e-02
5.886650724712064187e-02
-5.886650724712061411e-03
-5.886650724712061411e-03
-5.886650724712061411e-03
-2.354660289884827340e-02
-5.886650724712061411e-03
3.531990434827236847e-02
0.000000000000000000e+00
-5.886650724712061411e-03
0.000000000000000000e+00
2.943325362356030706e-02
-5.886650724712061411e-03
-4.120655507298445763e-02
5.886650724712061411e-03
0.000000000000000000e+00
1.177330144942412282e-02
5.886650724712064187e-02
-5.297985652240859433e-02
-5.297985652240859433e-02
4.709320579769651904e-02
1.177330144942412282e-02
1.177330144942412282e-02
-5.886650724712089167e-03
-1.765995217413621199e-02
-2.943325362356033481e-02
-5.297985652240859433e-02
0.000000000000000000e+00
5.886650724712061411e-03
-3.531990434827239622e-02
-3.531990434827239622e-02
0.000000000000000000e+00
0.000000000000000000e+00
5.886650724712061411e-03
2.943325362356030706e-02
-1.765995217413621199e-02
3.531990434827239622e-02
2.354660289884827340e-02
-1.177330144942412282e-02
-1.177330144942413670e-02
6.475315797183270328e-02
1.000730623201050995e-01
1.412796173930895571e-01
2.178060768143463832e-01
5.886650724712065574e-02
-1.118463637695292223e-01
-3.531990434827238234e-02
-2.943325362356032093e-02
-1.118463637695292223e-01
-7.063980869654477857e-02
-1.765995217413619811e-02
-1.765995217413619117e-02
5.886650724712068350e-03
0.000000000000000000e+00
4.120655507298445069e-02
-5.886650724712061411e-03
0.000000000000000000e+00
-1.177330144942412976e-02
-5.886650724712068350e-03
5.297985652240858045e-02
5.886650724712065574e-02
-6.475315797183271715e-02
-4.061789000051324594e-01
-6.593048811677513221e-01
-2.354660289884825897e+00
-3.590856942074359903e+00
-2.725519285541686099e+00
2.066214404373934777e+00
6.569502208778664532e+00
6.122116753700547420e+00
3.991149191354780079e+00
1.559962442048697273e+00
-3.002191869603152985e-01
-1.036050527549323474e+00
-9.654107188527786265e-01
-6.651915318924633835e-01
-4.473854550781168893e-01
-3.590856942074359681e-01
-2.766725840614670529e-01
-2.943325362356032371e-01
-2.590126318873308686e-01
-2.178060768143463832e-01
-1.824861724660740148e-01
-2.825592347861791143e-01
-2.531259811626188072e-01
-2.001461246402101990e-01
-2.060327753649222604e-01
-2.413526797131946844e-01
-2.001461246402101990e-01
-2.060327753649222604e-01
-1.883728231907860762e-01
-2.413526797131946844e-01
-2.825592347861791143e-01
-2.825592347861791143e-01
-3.178791391344514827e-01
-3.414257420332997284e-01
-4.061789000051324594e-01
-4.944786608758134361e-01
-4.768187087016772518e-01
-4.885920101511013747e-01
-4.238388521792686436e-01
-3.767456463815721524e-01
-3.944055985557083366e-01
-4.356121536286927665e-01
-2.943325362356032371e-01
-1.883728231907860762e-01
-1.353929666683774957e-01
-8.829976087068097668e-02
-5.886650724712068350e-03
5.886650724712064187e-02
1.000730623201051134e-01
1.295063159436654066e-01
1.000730623201050995e-01
1.236196652189533729e-01
1.471662681178016185e-01
1.177330144942413115e-01
1.118463637695292501e-01
1.118463637695292501e-01
1.118463637695292501e-01
1.118463637695292501e-01
5.886650724712065574e-02
5.886650724712065574e-02
2.354660289884826299e-02
9.418641159539303809e-02
1.236196652189533729e-01
1.118463637695292501e-01
9.418641159539303809e-02
8.241311014596891527e-02
7.652645942125685385e-02
1.059597130448171609e-01
1.118463637695292501e-01
1.118463637695292501e-01
1.295063159436654343e-01
1.295063159436654343e-01
1.059597130448171609e-01
8.829976087068097668e-02
1.295063159436654343e-01
1.059597130448171609e-01
8.241311014596891527e-02
1.118463637695292501e-01
1.177330144942413115e-01
1.000730623201051134e-01
5.297985652240859433e-02
1.000730623201051134e-01
1.118463637695292501e-01
4.709320579769651904e-02
-1.883728231907860762e-01
4.709320579769651904e-02
5.297985652240859433e-02
1.000730623201051134e-01
9.418641159539303809e-02
-1.765995217413619464e-02
2.943325362356032440e-02
7.652645942125685385e-02
1.118463637695292501e-01
-4.709320579769651904e-02
1.177330144942413323e-02
-1.765995217413619464e-02
-5.886650724712064880e-02
2.943325362356032787e-02
-2.354660289884825952e-02
-4.120655507298445069e-02
-2.354660289884825952e-01
3.531990434827238928e-02
-2.943325362356032787e-02
-3.531990434827238928e-02
0.000000000000000000e+00
1.177330144942412976e-02
2.354660289884825952e-02
2.943325362356032787e-02
5.886650724712066615e-03
4.120655507298445763e-02
5.886650724712066615e-03
5.886650724712064880e-03
-2.943325362356032440e-02
-5.886650724712064880e-03
-2.943325362356032440e-02
-8.829976087068097668e-02
-1.177330144942412976e-02
1.765995217413619811e-02
-2.354660289884825952e-02
-2.354660289884825952e-02
7.063980869654477857e-02
3.531990434827238928e-02
-5.886650724712068350e-03
0.000000000000000000e+00
0.000000000000000000e+00
5.886650724712068350e-03
6.475315797183271715e-02
8.829976087068097668e-02
6.475315797183271715e-02
6.475315797183271715e-02
-1.765995217413619534e-01
-2.707859333367549914e-01
-1.530529188425137077e-01
-1.236196652189533590e-01
-1.707128710166498919e-01
-2.001461246402101990e-01
-5.297985652240858045e-02
5.886650724712068350e-03
3.531990434827238928e-02
2.943325362356032440e-02
-5.886650724712061411e-03
0.000000000000000000e+00
0.000000000000000000e+00
5.886650724712061411e-03
1.177330144942412282e-02
4.120655507298445763e-02
5.886650724712064880e-02
-1.177330144942412976e-01
-5.415718666735099829e-01
-1.136123589869428407e+00
-3.084604979749121956e+00
-3.337730960911740929e+00
-1.412796173930895405e+00
4.462081249331745880e+00
7.087527472553326824e+00
5.327418905864418797e+00
3.337730960911740485e+00
7.829245463867046118e-01
-6.593048811677513221e-01
-9.536374174033545037e-01
-8.064711492855528574e-01
-4.768187087016773074e-01
-3.885189478309962752e-01
-3.178791391344515382e-01
-2.413526797131946844e-01
-2.354660289884826230e-01
-2.472393304379067458e-01
-1.942594739154981376e-01
-1.353929666683774680e-01
-1.353929666683774680e-01
-1.353929666683774680e-01
-1.000730623201051134e-01
-1.648262202919378305e-01
-2.295793782637705616e-01
-1.883728231907860762e-01
-2.119194260896343773e-01
-2.119194260896343773e-01
-2.119194260896343773e-01
-2.884458855108911757e-01
-3.590856942074359681e-01
-4.002922492804203980e-01
-3.237657898591635997e-01
-4.532721058028290617e-01
-5.062519623252376144e-01
-4.532721058028290617e-01
-4.885920101511014302e-01
-5.180252637746617372e-01
-4.297255029039807050e-01
-3.885189478309962752e-01
-3.237657898591635997e-01
-2.354660289884826230e-01
-1.942594739154981376e-01
-3.237657898591635997e-01
-7.063980869654477857e-02
0.000000000000000000e+00
2.354660289884825952e-02
8.241311014596891527e-02
1.177330144942413115e-01
1.471662681178016185e-01
5.297985652240858045e-02
6.475315797183271715e-02
6.475315797183271715e-02
8.829976087068097668e-02
1.177330144942413115e-01
8.241311014596891527e-02
5.297985652240858045e-02
3.531990434827238928e-02
1.059597130448171748e-01
2.943325362356032787e-02
4.709320579769651904e-02
1.177330144942413115e-01
1.177330144942413115e-01
1.177330144942413115e-01
1.824861724660740148e-01
1.824861724660740148e-01
1.236196652189533729e-01
1.942594739154981376e-01
1.118463637695292223e-01
1.177330144942413115e-01
1.118463637695292223e-01
1.295063159436654343e-01
5.297985652240858045e-02
2.943325362356032787e-02
4.120655507298445763e-02
-5.886650724712064880e-03
3.531990434827238928e-02
4.120655507298445763e-02
-1.177330144942412976e-02
2.943325362356032787e-02
4.120655507298445763e-02
0.000000000000000000e+00
-4.120655507298445763e-02
-1.177330144942412976e-02
2.354660289884825952e-02
1.765995217413619811e-02
1.765995217413619811e-02
1.765995217413619811e-02
2.943325362356032787e-02
5.297985652240858045e-02
7.652645942125683998e-02
4.120655507298445763e-02
-1.765995217413619464e-02
-5.297985652240858045e-02
-8.241311014596890139e-02
-7.063980869654477857e-02
-2.943325362356032787e-02
5.886650724712064880e-03
-6.475315797183271715e-02
-4.709320579769651904e-02
-4.709320579769651904e-02
-1.765995217413619464e-02
2.354660289884825952e-02
1.177330144942412803e-02
-4.120655507298445763e-02
-4.709320579769651904e-02
1.765995217413619117e-02
0.000000000000000000e+00
-2.943325362356032440e-02
2.943325362356032787e-02
-1.765995217413619464e-02
1.765995217413619464e-02
1.765995217413619464e-02
-5.886650724712064880e-03
1.765995217413619464e-02
5.886650724712065748e-03
-5.886650724712064880e-03
-3.531990434827238928e-02
-2.943325362356032440e-02
4.120655507298445069e-02
1.765995217413619464e-02
-5.297985652240858739e-02
3.531990434827238928e-02
1.177330144942412976e-02
5.886650724712064880e-02
1.059597130448171748e-01
1.589395695672257414e-01
1.412796173930895571e-01
1.177330144942412976e-02
-2.413526797131946566e-01
-3.355390913085877225e-01
-2.236927275390584724e-01
-1.236196652189533729e-01
-1.236196652189533729e-01
-1.648262202919378305e-01
-5.886650724712064187e-02
6.475315797183271715e-02
1.765995217413619811e-02
7.652645942125683998e-02
5.297985652240858739e-02
-5.886650724712061411e-03
0.000000000000000000e+00
5.886650724712061411e-03
0.000000000000000000e+00
1.118463637695292362e-01
1.471662681178016185e-01
0.000000000000000000e+00
-4.944786608758134916e-01
-9.065442116056580124e-01
-2.731405936266398271e+00
-3.390710817434149593e+00
-1.919048136256132908e+00
3.467237276855406058e+00
6.834401491390707406e+00
5.462811872532795654e+00
3.649723449321480295e+00
1.242083302914245735e+00
-3.944055985557083366e-01
-9.595240681280666761e-01
-9.595240681280666761e-01
-6.004383739206305970e-01
-4.238388521792687547e-01
-3.649723449321480295e-01
-3.119924884097394768e-01
-3.178791391344515382e-01
-3.002191869603153540e-01
-2.472393304379067180e-01
-2.825592347861791698e-01
-3.061058376850274154e-01
-3.061058376850274154e-01
-2.236927275390584724e-01
-2.178060768143464110e-01
-3.178791391344515382e-01
-3.414257420332997839e-01
-3.178791391344515382e-01
-3.296524405838756611e-01
-3.178791391344515382e-01
-3.649723449321480295e-01
-4.532721058028290617e-01
-5.062519623252376144e-01
-5.474585173982220443e-01
-6.122116753700548308e-01
-6.593048811677513221e-01
-6.298716275441910151e-01
-6.593048811677513221e-01
-6.534182304430392607e-01
-5.886650724712064742e-01
-5.533451681229339947e-01
-5.180252637746616262e-01
-4.179522014545566377e-01
-3.237657898591635441e-01
-2.648992826120429300e-01
-2.707859333367549914e-01
-1.471662681178015908e-01
-7.063980869654476469e-02
-4.709320579769651904e-02
2.943325362356033481e-02
1.471662681178016185e-01
1.295063159436654343e-01
1.059597130448171609e-01
6.475315797183271715e-02
4.709320579769651904e-02
9.418641159539303809e-02
9.418641159539303809e-02
6.475315797183271715e-02
4.120655507298445763e-02
1.177330144942412976e-01
1.118463637695292362e-01
4.709320579769651904e-02
9.418641159539303809e-02
1.177330144942412976e-01
1.118463637695292362e-01
9.418641159539303809e-02
1.000730623201050995e-01
1.059597130448171609e-01
1.648262202919378028e-01
7.063980869654477857e-02
1.236196652189533590e-01
1.236196652189533590e-01
1.177330144942412976e-01
-2.943325362356033481e-02
1.177330144942412282e-02
6.475315797183271715e-02
6.475315797183271715e-02
4.120655507298445763e-02
2.354660289884824564e-02
1.765995217413618423e-02
-3.531990434827239622e-02
-3.531990434827238512e-01
3.531990434827239622e-02
5.886650724712061411e-03
2.943325362356033481e-02
9.418641159539303809e-02
2.943325362356033481e-02
-5.886650724712061411e-03
1.765995217413621199e-02
-4.709320579769651904e-02
-1.177330144942412282e-02
8.829976087068097668e-02
1.295063159436654343e-01
-7.063980869654476469e-02
-7.652645942125682610e-02
-6.475315797183270328e-02
2.354660289884827340e-02
-5.297985652240858045e-02
0.000000000000000000e+00
0.000000000000000000e+00
-6.475315797183270328e-02
5.886650724712061411e-03
-7.652645942125682610e-02
-5.886650724712064187e-02
-5.886650724712064187e-02
-1.177330144942412282e-02
-1.765995217413618423e-02
2.943325362356033481e-02
-3.531990434827239622e-02
-7.063980869654476469e-02
-7.652645942125682610e-02
5.886650724712061411e-03
0.000000000000000000e+00
-7.652645942125682610e-02
-8.241311014596891527e-02
-8.241311014596891527e-02
-8.241311014596891527e-02
1.000730623201051134e-01
5.886650724712065574e-02
-1.177330144942412282e-02
1.177330144942412282e-02
-1.353929666683774680e-01
-4.120655507298445763e-02
1.177330144942412282e-02
3.531990434827239622e-02
1.765995217413618423e-02
1.353929666683774957e-01
4.532721058028290062e-01
9.418641159539303809e-02
-1.707128710166498919e-01
-7.829245463867047228e-01
-2.472393304379067458e-01
-1.412796173930895849e-01
-1.236196652189533451e-01
-1.530529188425137077e-01
-3.531990434827239622e-02
6.475315797183273103e-02
1.059597130448171748e-01
-1.177330144942412282e-02
1.589395695672257691e-01
2.590126318873308686e-01
4.709320579769651904e-02
3.531990434827239622e-02
1.589395695672257691e-01
2.119194260896343496e-01
1.824861724660740148e-01
1.177330144942413115e-01
-3.178791391344514272e-01
-5.474585173982220443e-01
-1.919048136256132908e+00
-2.802045744962943008e+00
-1.736561963790059115e+00
1.765995217413619534e+00
6.563615558053952803e+00
6.281056323267773855e+00
4.885920101511014302e+00
2.913892108732472064e+00
2.825592347861791143e-01
-7.946978478361287346e-01
-9.830706710269148108e-01
-9.183175130550820242e-01
-7.122847376901597638e-01
-5.003653116005254420e-01
-3.767456463815721524e-01
-3.237657898591634886e-01
-3.119924884097393658e-01
-2.295793782637705338e-01
-2.472393304379067458e-01
-2.413526797131946289e-01
-1.942594739154981376e-01
-1.765995217413619534e-01
-9.418641159539303809e-02
-1.589395695672257691e-01
-1.707128710166498919e-01
-2.060327753649222604e-01
-1.883728231907860762e-01
-2.001461246402101990e-01
-2.295793782637705061e-01
-2.648992826120429300e-01
-3.414257420332997284e-01
-3.590856942074359126e-01
-3.296524405838756056e-01
-3.885189478309963307e-01
-4.827053594263893133e-01
-4.827053594263893133e-01
-5.768917710217824624e-01
-5.651184695723581175e-01
-4.532721058028290062e-01
-4.120655507298445763e-01
-4.356121536286928220e-01
-4.356121536286928220e-01
-2.354660289884825675e-01
-8.241311014596891527e-02
-6.475315797183270328e-02
0.000000000000000000e+00
5.886650724712089167e-03
-5.886650724712089167e-03
0.000000000000000000e+00
1.177330144942412282e-02
-1.177330144942412282e-02
0.000000000000000000e+00
7.063980869654479244e-02
1.765995217413618423e-02
2.943325362356036257e-02
2.354660289884830116e-02
2.943325362356036257e-02
-1.765995217413618423e-02
2.943325362356036257e-02
3.531990434827242398e-02
1.000730623201050995e-01
1.295063159436654621e-01
1.295063159436654621e-01
1.295063159436654621e-01
1.295063159436654621e-01
2.001461246402101990e-01
1.824861724660740148e-01
1.000730623201050995e-01
1.118463637695292223e-01
9.418641159539303809e-02
9.418641159539303809e-02
1.000730623201050995e-01
7.063980869654479244e-02
5.886650724712061411e-03
1.177330144942412282e-02
5.886650724712066962e-02
0.000000000000000000e+00
-1.765995217413618423e-02
2.354660289884830116e-02
5.886650724712061411e-03
0.000000000000000000e+00
2.943325362356036257e-02
2.354660289884830116e-02
0.000000000000000000e+00
1.177330144942412282e-02
0.000000000000000000e+00
-1.765995217413618423e-02
1.765995217413618423e-02
-2.943325362356030706e-02
-5.886650724712061411e-03
-1.177330144942412282e-02
0.000000000000000000e+00
-1.177330144942412282e-02
4.120655507298448539e-02
7.652645942125685385e-02
-1.765995217413618423e-02
-4.120655507298442988e-02
1.765995217413618423e-02
3.531990434827242398e-02
1.765995217413618423e-02
0.000000000000000000e+00
-5.886650724712061411e-03
-2.943325362356030706e-02
-1.177330144942412282e-02
-5.886650724712061411e-03
-1.765995217413618423e-02
-7.063980869654473693e-02
1.765995217413618423e-02
5.886650724712061411e-03
1.765995217413618423e-02
4.120655507298448539e-02
2.354660289884824564e-02
2.354660289884824564e-02
4.709320579769654680e-02
1.295063159436654066e-01
3.531990434827236847e-02
-8.241311014596891527e-02
4.709320579769649129e-02
1.177330144942412282e-02
-8.241311014596894302e-02
-1.000730623201051273e-01
-8.241311014596891527e-02
1.765995217413621199e-02
7.063980869654476469e-02
1.765995217413621199e-02
-5.886650724712061411e-03
-2.354660289884827340e-02
-6.475315797183273103e-02
-4.120655507298445763e-02
1.177330144942415058e-02
2.354660289884827340e-02
1.177330144942412282e-02
-5.886650724712061411e-03
-4.414988043534048834e-01
-7.181713884148719362e-01
-2.183947418868176005e+00
-3.131698185546818891e+00
-1.801315121761891902e+00
2.690199381193413508e+00
7.099300774002750281e+00
5.868990772537928891e+00
3.891076129034674924e+00
1.671808805818226551e+00
-2.766725840614670529e-01
-1.071370431897595843e+00
-9.300908145045063691e-01
-6.475315797183271993e-01
-4.297255029039807050e-01
-3.531990434827239067e-01
-3.414257420332997839e-01
-3.002191869603152985e-01
-2.531259811626188072e-01
-2.060327753649222882e-01
-2.354660289884825952e-01
-2.236927275390584724e-01
-2.354660289884825952e-01
-2.295793782637705338e-01
-2.236927275390584724e-01
-1.765995217413619534e-01
-1.765995217413619534e-01
-2.354660289884825952e-01
-2.472393304379067458e-01
-2.413526797131946844e-01
-2.943325362356032371e-01
-3.119924884097394768e-01
-3.119924884097394768e-01
-3.649723449321480295e-01
-4.297255029039807050e-01
-4.356121536286928220e-01
-5.239119144993737986e-01
-5.239119144993737986e-01
-5.180252637746617372e-01
-5.239119144993737986e-01
-5.062519623252376144e-01
-4.709320579769651349e-01
-4.120655507298445208e-01
-3.178791391344514827e-01
-2.060327753649222604e-01
-1.295063159436654066e-01
-1.765995217413618423e-02
5.886650724712064187e-02
1.707128710166498642e-01
2.060327753649222327e-01
2.354660289884826230e-01
2.648992826120429300e-01
2.884458855108911757e-01
2.531259811626188072e-01
2.178060768143463832e-01
2.590126318873308686e-01
2.178060768143463832e-01
2.001461246402101990e-01
2.178060768143463832e-01
2.001461246402101990e-01
4.709320579769652459e-01
1.942594739154981376e-01
2.001461246402101990e-01
2.178060768143463832e-01
2.413526797131946844e-01
2.001461246402101990e-01
1.883728231907860762e-01
2.766725840614670529e-01
